Frame,Center of Mass distance,Symmetry,Grounding,Arm fold,Leg fold,Kinetic Energy,Potential energy,Bone length coherence,Torque,Center velocity
1,0.15943160890045938,0.01719133263732942,0.4147250208642148,0.3035048953472358,0.023927924272869532,0.5828051485186306,0.6810089736868394,0.0,0.14453795972703065,0.6718064002134023
2,0.17133595572006124,0.023154454669891147,0.3897610284250314,0.3115975642847988,0.03622154666617757,0.5828051485186306,0.6810089736868394,0.057282415410612256,0.14453795972703065,0.6718064002134023
3,0.18763248177985603,0.027966020939106995,0.3549008345571006,0.31926429598615136,0.05370966300982674,0.6844710738643961,0.649067158551495,0.11975753291546326,0.15854048101835427,0.7906521037728572
4,0.2132723195534677,0.031636429207711654,0.3052487279147151,0.32336006843557163,0.07472892304507836,0.8026266667704747,0.60688737204104,0.18847139990686873,0.03459534826939443,0.9204531340759255
5,0.2499371947728211,0.03394520247143917,0.24480279821836454,0.3258589201508627,0.09762656652212205,0.8322516724404785,0.555232532859232,0.2621708834385409,0.09314035027364011,0.9533233613404369
6,0.3006170428645778,0.036610899249679446,0.18278060476706298,0.32770704334043704,0.12767048999819575,0.8313159692256655,0.49935398851642343,0.33853959902138964,0.16411084963331757,0.9305681385069922
7,0.35707882493169646,0.040439863340461533,0.13067888269696318,0.32964490248550604,0.16043280958856518,0.769254228516253,0.44647695122619213,0.41379928828921086,0.11148920849752293,0.8522477390787311
8,0.41790039080614466,0.045543512309376935,0.0872038455698232,0.33000026265180327,0.19402976776189287,0.7328106374483433,0.3991797782572355,0.48693962770398763,0.09882897520294642,0.8094570404667671
9,0.47880184360760997,0.051392807057049246,0.053406800268698484,0.32979422079526305,0.22620843873697224,0.6898658265769598,0.35676635293382614,0.5569976824934594,0.10976835507651878,0.7649698158647861
10,0.5373463256016029,0.05761099770391807,0.030526100953718105,0.32980154569992887,0.25739145620142273,0.6403099844194633,0.3202424056520736,0.6227331489475197,0.07448731468403737,0.725200757147329
11,0.590679843825006,0.06291008841621998,0.016410960569457574,0.33059178532135125,0.2860911333292466,0.5951364682283808,0.28978968038924285,0.6838497751686271,0.008776403590403865,0.6912088424243071
12,0.6385046534698621,0.06619656541441266,0.007972716042835991,0.33088284834978143,0.3117715884802125,0.5710934608139551,0.26446851469945987,0.7400303356238087,0.08380770426391876,0.6813315249154249
13,0.6817604546362526,0.0678452418123158,0.0021565795818408754,0.33085479999990813,0.3339284005517905,0.5787446594702023,0.2421750017169533,0.7900310934806598,0.10224885774291631,0.7054520801210193
14,0.7240360485558213,0.06564835114197384,0.0008389631298593941,0.3314538168890323,0.35620829137688337,0.5971897263161733,0.2220022288530663,0.833792293023686,0.16417628941480988,0.724186166318059
15,0.7782349814674977,0.06385890158530702,0.0004449246872913285,0.3322272186402247,0.385620164622743,0.6982168307388585,0.20154767486770328,0.8701531182987206,0.014190413126236572,0.8227731987870673
16,0.8441710145683246,0.06381831878922614,0.008692235811522389,0.3316215729228377,0.4226103619082041,0.7750834059864173,0.1785768222185364,0.9002345220286948,0.10355446746503436,0.8858739809146948
17,0.9137340650926518,0.06167037932209545,0.02642770520616605,0.32947122059852785,0.4655122163938685,0.8820479305757772,0.15387899235121005,0.9255896556383129,0.02091013452425015,0.9999999934610493
18,0.9709392054299101,0.05853008469811058,0.06611091054711961,0.32631321529219726,0.5198409058731183,0.9160378044953669,0.13167755932532307,0.9469664879015002,0.11976765751419184,0.9899438387250418
19,0.9930465236293694,0.05802534716992402,0.12425724391763406,0.3268196341572285,0.5763158859833847,0.8503632562922407,0.11732783285182188,0.9645652699821782,0.047207006376443005,0.8831275388341446
20,0.9842304626130012,0.06481685773136542,0.1859648445260183,0.3286089941108134,0.623684992931252,0.7826286743465493,0.10938434596709913,0.9785739076235656,0.03037829604805039,0.8226651555672179
21,0.9583325361894912,0.07979674696745608,0.24809357646951427,0.329436194701934,0.662766829591456,0.7432832422708473,0.10491496783345759,0.9891727652570963,0.036551877384570795,0.8075982498596989
22,0.9275539515325861,0.09992826449388578,0.30953978015795897,0.32781976339755364,0.6952431769066832,0.6874071204179732,0.10290255500363749,0.9964046109398278,0.036403504931563885,0.7422503705592363
23,0.9005496959835471,0.12124205389557588,0.36685921205172206,0.3273644209289447,0.7218235476785293,0.6202957547139503,0.1019372278669689,0.9999991466844037,0.04689786019366676,0.6550176072838427
24,0.8801987239717899,0.1396464315130708,0.4188670805292488,0.32635592292398535,0.7444016651403669,0.5582503209767588,0.10260280703895595,0.9999797554741486,0.033261551442879574,0.6040255940789964
25,0.8655451714140487,0.15482251442427225,0.468190956228546,0.3257660798165585,0.7651698926618525,0.5525332877003039,0.10490157757149701,0.9963938301813534,0.02132867495315039,0.5953447203399501
26,0.8539668420348776,0.1604490901237664,0.5252919218886599,0.32446877683000175,0.7909073072812086,0.5570247234060423,0.1087977720227218,0.9896036089883462,0.05051827338222274,0.5763034840574466
27,0.841462011433812,0.1584728215921536,0.5982726954427637,0.3205877718267583,0.8249283694815019,0.5667192329629349,0.11664510060843995,0.9803449783459851,0.025543980803226403,0.5569506912400213
28,0.8310208820675862,0.15232251896019086,0.6773501763734723,0.3119595726181214,0.8604418104703023,0.6303055872461928,0.12879682321589106,0.969088243257689,0.08411574027345398,0.6429655840221383
29,0.8214388509138253,0.14410308222659446,0.7544263944195803,0.29680607950335197,0.8923438361640019,0.6144625250409289,0.143160549662551,0.9563496709734267,0.04454057157180258,0.6078367015110351
30,0.8142552252230338,0.1411578156963601,0.8132256884973298,0.2810279054765708,0.9118968339597984,0.5586181676379872,0.157363280736727,0.9425179073232816,0.021926067611737605,0.5813881948845875
31,0.8080517759552088,0.1452717572027293,0.8547147689410017,0.2630871428045919,0.9210692337836219,0.5185546018724014,0.1679072093263729,0.9276292385465837,0.023091860543356834,0.5389394391220986
32,0.8044589786825244,0.1509703102794881,0.8858175562272093,0.24208649227690113,0.9262696305773251,0.4705708987074508,0.17430848332439264,0.9117857767408838,0.04143577608783626,0.470364371247687
33,0.8038236763228248,0.1564450004690081,0.9079224602795191,0.22183422558492688,0.9290697245142286,0.41128172906740046,0.17957397290667662,0.8951657907931814,0.06207451715016445,0.42483015779694644
34,0.8057135876091452,0.1606049343108475,0.9224890511086794,0.2457349591694059,0.9320500576417052,0.3233249180147986,0.18490493197418076,0.8778735125665448,0.028779386142528545,0.3610796110896252
35,0.8110237102391283,0.16320626212237738,0.9337944862268459,0.2767453132116786,0.9385995911175914,0.27805910470229195,0.18950228935305632,0.8600560871242906,0.01919921351734429,0.3051037152676774
36,0.8217021689238091,0.16000970174069362,0.946976993196472,0.3110452202454174,0.9519157853484265,0.2826648289937471,0.19307614151148184,0.841845597967697,0.02296151058571286,0.28525489807497056
37,0.833616330406128,0.15237386145682372,0.9661171869087042,0.34803364955464977,0.9671377760636709,0.32263637952568724,0.19709334270659845,0.8234521392307885,0.020921147028435706,0.33892978726971273
38,0.8429535228322127,0.14329184738075623,0.983355708862986,0.3818835276928092,0.9795502339515749,0.31658182635775134,0.20183639572958603,0.8050033568393894,0.020449224767364646,0.2605157175780079
39,0.8485626492049508,0.13988430747265815,0.9948158191011,0.4153381796059595,0.9877604689183923,0.35830951513582515,0.20649355668311722,0.7864385338800733,0.025818521573373596,0.3564592512098227
40,0.8499992667005252,0.13452995058886272,0.9999999835977303,0.4456902439287227,0.9917242372855317,0.34351584513036826,0.2106719951577251,0.767874463872904,0.03129020636104041,0.21731207231698604
41,0.8507548023562311,0.13076848051620685,0.9988338893715708,0.4713275199056265,0.9899151751780472,0.3373864567206601,0.2141397107712514,0.7493405864156647,0.03697753581940542,0.3181450592837805
42,0.8482077700320705,0.1381854912880018,0.993139725919361,0.4948170294423746,0.9834857444896615,0.2466262676917395,0.21621346051952348,0.7308953319351681,0.023674505600258484,0.239323983853791
43,0.8476395580217716,0.1473172766447142,0.9880419360571454,0.5198241797498397,0.9794096939268353,0.18980787535271665,0.2178588942337103,0.712555846744062,0.04053581219755261,0.1445353334946971
44,0.8460941831547206,0.15579254976002818,0.9833402010232756,0.5415261562291956,0.9756006213570974,0.17556538961933216,0.21964212391404447,0.6943083932715137,0.03481132488297721,0.1743669565391764
45,0.8457854048963369,0.1616631846956778,0.980799958220233,0.563049424319967,0.9741839757366564,0.13831791564761065,0.22063919698285295,0.6762359698428264,0.024359243314383886,0.09377825533382489
46,0.8476106387525564,0.16533693861736637,0.9803817231483296,0.5891461957118389,0.9754188978460002,0.1337317979019359,0.22158267363701267,0.6583968924701475,0.025665950769917862,0.0595143234862673
47,0.8514636760533475,0.16540060019025646,0.9822091185865328,0.6210723890630518,0.9790144426789952,0.12509154319652524,0.2227582860497628,0.6408423030108108,0.018164529946712804,0.05713551488151963
48,0.8575633907435071,0.16024147428881436,0.9855485100657104,0.6578758331399288,0.9844047058126307,0.12162581245305878,0.22399888146924393,0.6236092897100592,0.02030573196337728,0.019489550159930032
49,0.8634263912960252,0.15287604723629716,0.987867060417859,0.6968062320555494,0.9886581827461156,0.12267326956491023,0.22493192532578085,0.6067080431218259,0.02700356761449833,0.036876204648785466
50,0.8697900999167077,0.14544541652412815,0.9918386071691991,0.7371783414232166,0.9944280719170603,0.125632398347452,0.22570735840934456,0.5900526526260955,0.019115773702801087,0.021308098986691566
51,0.8751946774147965,0.13771381906623137,0.9969165997892315,0.7759697040092018,0.9999999750320676,0.13841050357043538,0.22710635652705044,0.5736233590100144,0.019574568173357326,0.007599061743316544
52,0.8740709555774813,0.1384499944131604,0.9958185860792468,0.8040312101051389,0.9979132256155957,0.1543893593611065,0.22784898010495433,0.5573319224147651,0.04725673816162935,0.15382832049092657
53,0.8726486016166106,0.14065832870938202,0.9921679379590751,0.8196179298825683,0.9933914013777776,0.15441135854937532,0.22692207939186926,0.5412825945891236,0.041945968784890195,0.17051458784555856
54,0.8717731278074536,0.1407847865114814,0.9896178698580601,0.8284548777920819,0.9881769205273305,0.1380382318675241,0.2257082820812129,0.5256705102437412,0.016812681492495995,0.06326048594410474
55,0.8661551415385101,0.1475607613253218,0.9845800583073481,0.8349750587870693,0.9767061793571665,0.16763621666942546,0.22445880015220582,0.5105212836284262,0.037069048519706334,0.07274030146562506
56,0.8553207617240454,0.15631043322758278,0.9771078825377147,0.8391959347026593,0.9604846700508374,0.16466185443997908,0.22224023742753035,0.49577109663151187,0.032023518175146176,0.03761305475214395
57,0.8417157750237416,0.1642463331961572,0.9674426122728803,0.8451022215207741,0.9413341495963957,0.16941861981418746,0.2183827347910249,0.4814260395436829,0.028012919462666597,0.059059526370150134
58,0.8263526633430596,0.17417500182841,0.9549689198965378,0.8476888316658499,0.919509251673205,0.17801166713019875,0.21331121481191392,0.46747104888335766,0.031177186291567165,0.05646157484110514
59,0.8127152415998414,0.17989458167403452,0.9436964801820099,0.8425063615782038,0.9014929654915522,0.14359674270867376,0.20842140046055455,0.4538953360946946,0.03129204761302249,0.03131048763077223
60,0.8031966532837295,0.18224609700513777,0.935682006622791,0.8351199449398309,0.8893846820820014,0.10975772364428714,0.20489727873824953,0.4407099366531685,0.02738268277555261,0.07630258814728923
61,0.7977232235455919,0.18038067252871337,0.9318439079483908,0.8242938247852238,0.883387184094117,0.10837599723737029,0.2032704787286255,0.42795781805392696,0.020028308250699137,0.15814591562197677
62,0.795731631982368,0.1754169599562502,0.9312179851413601,0.8104595517159062,0.8820981445832051,0.15466608833297366,0.20303107540402757,0.41573941947620896,0.025633257224573158,0.2638267800942746
63,0.7955581150722456,0.16952098245070168,0.9318722839955204,0.7923822816467103,0.8831999276746786,0.18310074587548422,0.20344211247126956,0.40408593773927665,0.025691499503501233,0.318615134269443
64,0.7967826819671865,0.16400908596834804,0.9333155396122469,0.771371561660382,0.886194490104728,0.19208891417674964,0.20414709791643013,0.39300620200474096,0.027126641450655842,0.3325895386463508
65,0.7946980451359126,0.16159242712665708,0.9319185508837341,0.7556065481632902,0.8864223621804795,0.20374058096631317,0.20415866600894472,0.38249634653588666,0.03171480467600769,0.3324030720832962
66,0.7900809002698342,0.16401032180492608,0.9277507914654209,0.7429172096320141,0.8831672730590392,0.1945109013893418,0.20255805349558167,0.37253502343690287,0.027215456468563715,0.32735769580706814
67,0.7833745492470928,0.17386426334924007,0.9201267268543698,0.7389245103897687,0.8781079265436934,0.2130441141605033,0.20030127591770017,0.3631171093635876,0.023498170816266345,0.3250560910371989
68,0.7738258107377122,0.19384455985344348,0.9109577807833841,0.7428130511887054,0.8714407435004121,0.22017815066245577,0.198069798305765,0.35430205971851475,0.025543438871102348,0.32485600359158684
69,0.7595296710709422,0.22352929734320218,0.89933958590028,0.7442669319004882,0.8603802943483625,0.22161006086372534,0.19610443883578,0.3460784491959453,0.026301190524087064,0.2656770178050239
70,0.7410351486500134,0.2556736725325127,0.8840759488384674,0.7287192221422638,0.84437453927692,0.24973251824076942,0.19480280056182173,0.3383657603244173,0.027225400057792802,0.22849739029817473
71,0.7189851724011973,0.29055935942277233,0.8661941264979051,0.7094150614761194,0.8226389829950718,0.28232305970449345,0.19306138370932893,0.3311054427927892,0.03010128791396493,0.20046043166852362
72,0.6946438523534695,0.3282569115296155,0.8440209219600627,0.6884890528308916,0.7958271952355299,0.3165219189234606,0.1909038541172926,0.32420537283693057,0.02495854300733326,0.2595422792475325
73,0.6695412260710812,0.367107880783541,0.8177434558251325,0.6642373593887,0.7657513847774104,0.31329105578445227,0.18768875058573165,0.317674764843401,0.02452080983218899,0.21367984131310236
74,0.6453234418155549,0.40435354378836796,0.7890394343834758,0.6401882178930386,0.7348018462173844,0.3103447261469314,0.1824704097974757,0.31147499695339,0.02321124178890443,0.19552965408420409
75,0.6242586642048874,0.4366251890665509,0.7600563451501527,0.6112194790125851,0.7061431693134443,0.28868754200775515,0.17656156614380464,0.30560164373870535,0.01864817942682067,0.17100725379118903
76,0.6071508062732219,0.4622539028620203,0.7328438259376548,0.5799658565765252,0.6810070330718182,0.25086616581230464,0.17069777609352663,0.2999972830478755,0.016611926421621334,0.1305407407721826
77,0.5957539490489064,0.479305415247459,0.7136413075741047,0.5470686316114574,0.6634219847076994,0.1792871720206725,0.16561049112769088,0.29458406755686817,0.015142403766944021,0.10395400963195638
78,0.5892847600101225,0.4875177155444508,0.7003429134145868,0.5074504494880696,0.6529414004020228,0.13775864675752797,0.16163307834706186,0.2894062223965922,0.03761873509213153,0.08990901303589953
79,0.5863438571783476,0.4905023381665764,0.6926426294211298,0.46476576546993986,0.6483920481494356,0.1341451513345575,0.1595679253900082,0.2844648754594356,0.013305478885155762,0.08545328058282942
80,0.5867026053709525,0.4898953391942409,0.6905452949196005,0.42926361960742176,0.6488481209036313,0.10088234530520018,0.16006424810534653,0.2797743766329431,0.030566102176816518,0.10294254733996859
81,0.5899019203689727,0.489387054871362,0.6922649420341425,0.4033369327975771,0.6532893691544288,0.10689415140363703,0.16232934271140037,0.275399228922135,0.032543168567059785,0.09847681705487085
82,0.5934817590445278,0.4918510937676062,0.6965261517678729,0.38565362066517583,0.6587261488689253,0.10439819915307266,0.16489183690560028,0.2713599650161144,0.04446196421533281,0.1218938575635286
83,0.5940384568940535,0.5005046559720575,0.6979096490424535,0.37048642794489334,0.6601901197727474,0.10792840702290293,0.16690379375084555,0.26767415768803016,0.06729184623322643,0.12628920605833027
84,0.5923783583528249,0.5146738702670421,0.6986463630825919,0.35320451098411004,0.6601576174076439,0.15650628943636025,0.16956012199680842,0.2642773847266038,0.03951131275132086,0.19075275252439436
85,0.5858076428414525,0.5321176104740026,0.6945059531877396,0.3351214331342181,0.6545835119936789,0.17317532715564807,0.1720427066779779,0.26106919067581713,0.06044321593852277,0.20919998912453244
86,0.5727525401954429,0.5544317334858315,0.6841456530760306,0.32055586046027684,0.6411200900327134,0.2502246749711747,0.1720620514191694,0.2579265478308158,0.04920593138962008,0.2691943700490503
87,0.5576733966504551,0.57843941918547,0.670494574713172,0.3091274212629509,0.6238700128073184,0.29012221925953263,0.17053069678010532,0.2547148256833285,0.01912852071206442,0.3234946764502209
88,0.5427511499211055,0.6012001309067753,0.657081503195229,0.29786653785437067,0.6054198661893055,0.2968887021927444,0.16816272879068647,0.25137812805396426,0.02927773734401362,0.3195724784792159
89,0.5280486054897642,0.6258337108551533,0.6431587993373028,0.2896997272541636,0.585733018621393,0.31723747009388775,0.16480141541308962,0.24787536657861994,0.014182115403721668,0.3730535400657982
90,0.5147455602835749,0.649570816718963,0.6292554527828447,0.28401475029926265,0.5665866739457422,0.31534730097501035,0.16086136338956766,0.24426835306404557,0.003276046924301287,0.3760323610942302
91,0.5036226120250008,0.667109366887549,0.6144656297172874,0.2694844502488733,0.5489894544581847,0.2705433990978563,0.15649706423081128,0.24060545367054273,0.0063654099638475875,0.30882866080627586
92,0.4963972873606228,0.6760633424257553,0.6026452463329958,0.24408148042010688,0.5364249864443583,0.21005781503943646,0.15252334144735488,0.23686240742020043,0.0014177612419181403,0.22892265832434652
93,0.49225666677737373,0.6778078807052837,0.5949791675746442,0.2069822644221148,0.5291515767596061,0.14789684106872117,0.14986315607247558,0.2330714903388995,0.012235945574605762,0.15271673481190676
94,0.49194572654215873,0.6731577795002351,0.5942945862722555,0.16697951385557336,0.5292758493546225,0.09854006482565403,0.14918045346942366,0.22926880418862416,0.002137224788192696,0.0833256803444675
95,0.4929022866194383,0.6672306312734977,0.595557210384839,0.13255293230458412,0.5321472035203808,0.08585257910684128,0.15005649212203223,0.22550300396909975,0.017191007011468,0.05085884956918652
96,0.4933628539388053,0.6644947753113056,0.595690071876825,0.10691512443823266,0.534120907407976,0.06549403187846274,0.15093840896581068,0.2218370480956094,0.08170629256769488,0.043936481167827356
97,0.49124664980046895,0.6699501627383663,0.593407559837762,0.09000539994607551,0.5324922588741909,0.11442653849222346,0.15059450391705664,0.21820990410658495,0.10853987469412779,0.15059827180888627
98,0.4844578559266624,0.6863844720887505,0.5859874068211995,0.08082577725650272,0.5245562248152129,0.22817723586994318,0.1485570104470605,0.21449113155099847,0.05748430729746158,0.31041595834606117
99,0.47138102429096157,0.7111442139638386,0.5685040223103573,0.0772667480162323,0.5057385450627437,0.2881763458211718,0.1438561992631444,0.2106814375136408,0.024887586691986353,0.3420371299387595
100,0.45504597482824305,0.7382676692129542,0.5428069453254359,0.07536835124796072,0.47907082457358197,0.31325531388139877,0.1355859058235194,0.20673486175736364,0.020822703671441123,0.3360834540291754
