Frame,Center of Mass distance,Symmetry,Grounding,Arm fold,Leg fold,Kinetic Energy,Potential energy,Bone length coherence,Torque,Center velocity
1,0.1153303151000863,0.9173585110930952,0.6762365075096056,0.38439522068750587,0.11422772174222624,0.10923209852086699,0.9473206554287114,0.16377286286612944,0.4808831267674023,0.09042870069912358
2,0.11358162888062999,0.9187884318683841,0.6829949287529712,0.3846345404393813,0.11588268283117666,0.10923209852086699,0.9473206554287114,0.16233922435739223,0.4808831267674023,0.09042870069912358
3,0.11330992116857933,0.9201625303325256,0.6872658835492559,0.3842531488868717,0.11847315794380078,0.04891480942665229,0.9487460610786268,0.16109146592727988,0.05397197804887173,0.06767185907592078
4,0.11206618261338307,0.9212086263638177,0.694549776963748,0.3850929642375454,0.11640302861074062,0.059117134864766954,0.9506510239008312,0.15957991805157906,0.09900957918283777,0.05503682113775258
5,0.11023155093713312,0.9222420295873675,0.7017227552783161,0.386862840264279,0.11717909294993384,0.07574551154394531,0.9532573072805688,0.15778918865227984,0.08218561450775888,0.03558982332981099
6,0.10819572540427883,0.9239248113475531,0.7076991072483462,0.3873117615186418,0.11929501292215763,0.07203237672446132,0.955378963205022,0.15597022877224384,0.05244458434984023,0.036573536857157946
7,0.10623705515665288,0.9255928337829823,0.7121883370083276,0.3871273798390488,0.11833331359881329,0.07318710692836167,0.9564986343548583,0.15423426254869066,0.06932930012718737,0.050066759996846934
8,0.1036888939307182,0.9277097015258455,0.7173284230236953,0.3866589529440727,0.11833229601367726,0.08971307840531755,0.9575919023059944,0.15239567928347458,0.05717146662831815,0.060922676498731954
9,0.10165269435975423,0.9288433727629125,0.7246970220064852,0.38698416942033537,0.11814994245043531,0.09904387300763316,0.9594122204943312,0.1504686910024727,0.07955772570321223,0.06617919109899079
10,0.0980434328834245,0.9301863917439146,0.7337938584882938,0.387711376991455,0.11798186812552842,0.12029344834143889,0.9618135746987239,0.14829460279526344,0.10050131862536019,0.06289862256784665
11,0.09363704417666029,0.9312301758102761,0.741820713578459,0.38803818122516204,0.11537688121232346,0.13979093943435447,0.9645440081977312,0.14588299031520424,0.09198921822492624,0.07692993095246208
12,0.08823604457062546,0.932719821624569,0.7534224206285068,0.3883602612498597,0.11318682281485341,0.1664694018718217,0.9675397036370486,0.14316049008857978,0.07803426107190346,0.10034437333127805
13,0.08229052568694793,0.9353271721817888,0.7631913827726754,0.3876956950016966,0.1100572247940925,0.17138866713274925,0.9702069260525471,0.1400810110948179,0.10037733787065505,0.13129622926848783
14,0.07562206757544794,0.9388730139310876,0.7690312095405069,0.3865877296859014,0.1047406189712919,0.19579617216209172,0.9715170173483685,0.13665566360990847,0.10672911338534172,0.16208653584017108
15,0.06774409890941421,0.9432487441170146,0.7723389020396149,0.3859931257857366,0.09960359153849606,0.2000762655653697,0.9715856737677372,0.13287817093775842,0.1974472404248495,0.16034043407475398
16,0.06118951734162234,0.948050340370902,0.7752500823579851,0.38434263997660273,0.10638593335935245,0.19000918529780295,0.9710129010829949,0.12876444522953326,0.06441900657712575,0.19889143261436135
17,0.05586589314288397,0.9533467339188352,0.7793876744586477,0.3816077872889013,0.11478718664524765,0.1931067484195584,0.9702098191687119,0.12429484196378135,0.05503426242513676,0.24121735683095744
18,0.05174434873664617,0.9584730636334304,0.7838937295804141,0.3780787810966218,0.12182878160338405,0.20044740823977017,0.9696990390963939,0.11944009906799578,0.0891002617234212,0.25157266367008874
19,0.04851811162757898,0.9633551877631034,0.790938285324012,0.37367421260711997,0.1282476588558034,0.2172359202684983,0.9694395105698254,0.11422578793765324,0.05803131366144045,0.28470574433099216
20,0.04569295226898951,0.9677652352085976,0.797558982506477,0.3681053883080515,0.13436714117603238,0.2220079462829495,0.9692437749462937,0.10867250742960079,0.07838526107649903,0.28971190980000155
21,0.043359223150676474,0.971730046934255,0.8074659374212552,0.3622376359510617,0.14046755534131045,0.24277152894671128,0.9695597950362009,0.10279625171581697,0.06256867508430827,0.31055067475857023
22,0.04103456170914111,0.9750789696626787,0.8257470650601941,0.3561722610975996,0.14765189580939608,0.2777899332178035,0.9713403281108212,0.09664843213371159,0.06454024616262721,0.35299595618771096
23,0.03939948642815049,0.977106490410726,0.853657033064997,0.34974990442038184,0.15467554010273077,0.3258685781966924,0.9752844460210712,0.09025242664112816,0.20434381927408474,0.39360385332352293
24,0.03757526790795736,0.9789323529516077,0.8898914004878447,0.3425041195209639,0.1639256111334361,0.38500058117231517,0.9813356339746784,0.0836725859006526,0.33048479251647656,0.4667188446733952
25,0.03542791842664423,0.9810708014579377,0.9264850121217767,0.3331388786944744,0.17488177137133795,0.4377699063132356,0.9881046854710082,0.0769728677118273,0.4992038571821312,0.5432645970401282
26,0.03244436547682068,0.9836561390190082,0.9633396855730841,0.3202010202742776,0.18893424205609907,0.49996911524256543,0.9932910706730372,0.07022513628131291,0.9999999998293888,0.6384120538750984
27,0.026540910272555132,0.989304070699808,0.9797911481328099,0.30069900566364277,0.20715537145586735,0.5604049488714787,0.9933419459913605,0.06360800812419633,0.7766687215158291,0.746791111743014
28,0.018653518560865293,0.9954985411327537,0.9738914817797604,0.2762378281125028,0.2274343337549611,0.6283441748121709,0.9855654600438065,0.05725639523743656,0.11795881220601517,0.7897420521197578
29,0.009109950727903004,0.999705166765261,0.9606526091521002,0.25162005219680944,0.25099086988792957,0.6470762818823187,0.9729126742095267,0.05123815482609663,0.07867801329208507,0.7975048907890412
30,0.0016807775528310228,0.9999999961221248,0.93971516201888,0.22892006810296175,0.27015695799612255,0.6493122714105931,0.958238012436825,0.045574540879247935,0.13060422995182816,0.7773240010832381
31,0.0,0.9956564223314154,0.9121663398631022,0.20580746748864134,0.27930154956840514,0.6742218858467839,0.9414712828814819,0.040268704511441815,0.48022110780152316,0.7564290545699978
32,0.002745428460726265,0.9866710199914016,0.8886631697475214,0.1835245918524578,0.2814374521460773,0.6249534696566158,0.9258141255825865,0.03527526738050847,0.3371786339214125,0.6734875969393579
33,0.010140815009974165,0.9733663671878404,0.8713118810519432,0.16196648407586237,0.27621143604590886,0.5921481071340184,0.913605340422051,0.0305783535208406,0.3617374777135639,0.6151338444817995
34,0.018193260192708744,0.9583150361953116,0.8628752023154511,0.14267862903687778,0.2703468162288839,0.5483417715278487,0.904567845193873,0.026149722988125873,0.4909298964570717,0.5665979954202823
35,0.026568181073679566,0.9417631947821671,0.8687547154403185,0.12504612299815376,0.2645518161211139,0.48168243336205363,0.9005813473800839,0.021983545313662593,0.22596644820238193,0.4984685021098329
36,0.03602344201940364,0.9231886544579955,0.8863237830201305,0.10800399474609453,0.25954742966744077,0.5203136120048927,0.9019400851205835,0.018100136272180267,0.3054441698611339,0.5324076495162573
37,0.046277814432789936,0.9039122251634996,0.9203745533369299,0.09245657971653388,0.2568066616258329,0.5774832567861355,0.9077703195972007,0.014529479471175182,0.44367092503611716,0.580593922295403
38,0.05952271667171841,0.88001317355314,0.9646846190070657,0.07691193459652967,0.25034812917389176,0.6879595053584466,0.9164236061917624,0.011289091951295595,0.395361727879259,0.7382565415056109
39,0.07720104462031875,0.8532261796660151,0.990781023845223,0.06458210464227315,0.23856833864941834,0.7295893005098121,0.9263579687100422,0.008365065642249073,0.7002607938951086,0.6766691810069086
40,0.09561522917609835,0.8219904123007248,0.9999999785548271,0.04937104763703688,0.2258912407050806,0.8611568758331072,0.9330804239566866,0.0058076331106905,0.7239217933272974,0.835964130353611
41,0.11424593911671578,0.7830443906772628,0.976038947764924,0.028102387270083077,0.21014139244842303,0.9999999982408004,0.9292326153611048,0.0037155938213458643,0.2639914138302434,0.9024393100692659
42,0.13300094817341385,0.741452042586573,0.9385910046158873,0.004778126040368346,0.1895220994582858,0.9708962638851463,0.9159763283108223,0.0020930982269906358,0.34387566652200224,0.8665021810200065
43,0.14883713674275947,0.7013130548150601,0.9089606950435181,0.0,0.17284549203107957,0.902459138789914,0.9007785131772201,0.0009200578076920616,0.1590999466659387,0.8467819368379855
44,0.1629879542213401,0.6650950509849067,0.8772884190517719,0.0009769377452376739,0.1653598507948633,0.8697003804042392,0.8868114809522187,0.0002178294022294198,0.15249789672621122,0.7765183495865935
45,0.17459511597779526,0.6320157067404173,0.8469948098974877,0.0022605988198949765,0.1766743673764618,0.83816600479207,0.8719374512659497,0.0,0.2568568987986752,0.7802469996353835
46,0.1847106431270792,0.6010613696673349,0.8189044136580157,0.013211518316634425,0.18568498909620196,0.7637000425433048,0.8572284949216948,0.0002643890872678237,0.4081989066259868,0.6845544259354425
47,0.19186598605918118,0.5765288790197912,0.80352322186962,0.03089839889686969,0.18879702310749805,0.646827035246395,0.8456254077501781,0.0010589856155588404,0.04202778345422731,0.6403319188453511
48,0.19933493271031208,0.5523666696896361,0.7957628854709229,0.04742912479435123,0.19067651964706336,0.6361685763274729,0.8370535247232718,0.0023759534324976437,0.04905878687457407,0.5879228792269988
49,0.2063665485982584,0.5281833336843139,0.8042005150263858,0.06417745531676745,0.1906135630906013,0.6365772754086899,0.8314941600519027,0.004279113843996849,0.10522301642494834,0.6273798725285705
50,0.21236992420831546,0.503081513906527,0.830459230863826,0.08118563450469587,0.19279095896312826,0.6762948522965873,0.8303759400514609,0.006812909714154172,0.039040762780571524,0.6877797382959042
51,0.21802694468485104,0.47854742005335626,0.8461013707847206,0.09740333804476257,0.1921403838189559,0.6865715120144832,0.8298665123867407,0.010050481668044075,0.07028603949226621,0.7141322599440492
52,0.2200760716013749,0.45391094109964014,0.8449244946038009,0.11688621120578412,0.18508582149053063,0.712451572082684,0.8243352360230511,0.014084923298926301,0.15543601071238577,0.7199511341090201
53,0.22011978690189826,0.4274913863267445,0.8258134053533746,0.1399019091865403,0.17560663987870254,0.80512774926949,0.8116694705062827,0.01895650388086955,0.12746806153866597,0.8421465297379673
54,0.22233914868068774,0.3977719018358798,0.780173877727508,0.1638280013155405,0.17446211240867213,0.7668544276759578,0.7906735188137559,0.02457609318508548,0.04525728565452452,0.7469465401595634
55,0.22317779280121183,0.36991886361635384,0.7302473864076875,0.1863916943443243,0.17179656779693586,0.757923529250507,0.7642141542629068,0.030878147549637053,0.276831785813576,0.7714928817440432
56,0.22525995652444192,0.3481985332276377,0.6778016175452249,0.20381821597116834,0.1690508902156068,0.616879826961874,0.7359979005127184,0.03777453368701314,0.07739928619698126,0.6212824742996055
57,0.22710645629852969,0.32535472731104287,0.6315403886674091,0.22202802018874254,0.16518049072072344,0.6521038098135091,0.7082392962460821,0.04515897326884237,0.152576006972602,0.6745717853314716
58,0.2290601047718598,0.3064903690898299,0.5940645410485816,0.23602109299989,0.16047725968512533,0.5514399392750395,0.6833658021039422,0.052994524819449065,0.1508813019905168,0.5762940529277317
59,0.22971786755232393,0.29006173722716094,0.579083685386784,0.24812019215425357,0.15612485302127213,0.4477501382328222,0.6653621868927972,0.06115673837762383,0.06379395622859395,0.5018895773136606
60,0.22977443556549546,0.2772537821713845,0.5661815266945992,0.2548195127583349,0.15172773082394658,0.3986624135854107,0.6529770352510802,0.06968748360981107,0.04363454362386469,0.47013946754627367
61,0.22772252459296805,0.2674567837576584,0.561510359791582,0.25446113688633243,0.1486277861210103,0.3447454220084337,0.6427426685069427,0.07852550791765803,0.06598655012645972,0.3753031968801815
62,0.2233924676505394,0.2603871776331374,0.570246567173806,0.2547984558171161,0.1501791574686095,0.3674751659983029,0.637201114777567,0.08761670331709497,0.13433037812766657,0.39312619720667663
63,0.2158847201998277,0.2515999500468912,0.5876690019323617,0.24937271524078714,0.15051119217326223,0.4449505543156935,0.6355332558218193,0.0969071962748175,0.012680794054558606,0.4094328408072016
64,0.21201047576432425,0.2402337061810514,0.6107308473557185,0.23846021329727649,0.15166912902507879,0.44887342108961703,0.637411779838859,0.10625318035353129,0.0483014270512759,0.37172906261278765
65,0.21065853929951361,0.22334347920927736,0.6068321381864423,0.22253546708532757,0.15101349024450225,0.47409449698163647,0.6370193204123116,0.11564331046490799,0.26833788432251643,0.47066827705816117
66,0.20896351308424319,0.21193722816598978,0.6064011278130521,0.20574058133015255,0.1555689601210707,0.3180088122386555,0.631612197297576,0.12491266391095139,0.13410998364754412,0.3615847324945054
67,0.20855353951887212,0.1998311487617078,0.5793348049449232,0.19569187153630194,0.1643847457186983,0.38721416384979246,0.6207522020618024,0.13407399407019585,0.11972529701164276,0.472478724035776
68,0.2070978534309293,0.1919679676516449,0.547464283197797,0.18560906511827346,0.16202943077905005,0.32277060610624453,0.6050706157767635,0.143000193068845,0.0909687280847726,0.28424296825511564
69,0.20260250695529117,0.18419540726403566,0.5116547251550525,0.18333653551316711,0.14990585672169057,0.3509238046640268,0.5895773423291909,0.1516814238129362,0.08393301309807052,0.3753810088751717
70,0.19444834760133964,0.17716856567868225,0.476743484339794,0.18111775698167495,0.127335712520267,0.38632508599220156,0.5736030487102325,0.1601441967269379,0.07534343314259848,0.34479776775220744
71,0.18754168350178865,0.1773059033735487,0.43325554635962676,0.17550239753037536,0.10168917895701783,0.4342472459118327,0.5553041283986206,0.16835115937530581,0.07518231757742218,0.36793692050972915
72,0.1794975975958891,0.1791390673510782,0.3958205632865597,0.17260318860160204,0.07419118784531671,0.45903356251022315,0.5333067918492794,0.17634330557579692,0.2931263256987961,0.4369771313707979
73,0.1696873842824365,0.18456274832713448,0.3797598253138374,0.16547679724717773,0.07479655293252609,0.31657272542635534,0.5174804262495513,0.18411396554104953,0.32646921622554376,0.24189221158104007
74,0.15903896073100707,0.18444287660037925,0.3615823989526319,0.1484727546040431,0.0961722778297795,0.43291846329801376,0.5056717119273675,0.19159041228312632,0.37039166654919886,0.42310437499374676
75,0.1507544097156857,0.18665372556443563,0.36027994232266525,0.12223132139112973,0.1109933838385323,0.23539356346974283,0.4968924268258949,0.19876254161935494,0.012271515318321321,0.23957375826023072
76,0.14258273367205127,0.18514675610241838,0.3648650807788164,0.09133594836698201,0.12108211183964343,0.2241961326618142,0.49478938684559437,0.20562532926693677,0.07995222568238296,0.2431148163122952
77,0.13281892272619153,0.18493591182916858,0.39524589656869114,0.05547991894743927,0.13125856429529048,0.24851663450507397,0.4988505781586957,0.21211044741076282,0.01945720977761551,0.05375931125983771
78,0.1213589808843974,0.1805270336058834,0.42647442948083125,0.021544966656413807,0.14127789212440697,0.26205551198035826,0.510468255480526,0.2182166082654997,0.01734297919246421,0.13901672535633078
79,0.11361354262420123,0.17580218763670452,0.44061722089991323,0.0003276367994778607,0.1497688633476845,0.2283427614007521,0.5219384760100636,0.22392803124957023,0.0306436840346589,0.0833394737814487
80,0.10683753427215671,0.1698563461562254,0.4548120386526718,0.020301199815586177,0.1568707374605928,0.23268868725976277,0.5310530206257094,0.22915513506478247,0.10957554598007459,0.13795576395532086
81,0.10271533049164494,0.16462922618424156,0.4641486262049271,0.032890652194875226,0.16219090846447268,0.24843801875413224,0.5390490823212363,0.23384447061485922,0.23836452773562505,0.20816917815003144
82,0.09773018448915778,0.15528162366998557,0.4504889955127777,0.040408950169553974,0.16714760482504099,0.31269986134261973,0.5417820972718214,0.2379884516043583,0.24670883503921637,0.4067639660137981
83,0.09489671310975069,0.14330833842928736,0.4148558763990212,0.04722679991420535,0.16843890522545016,0.4402494971890178,0.5355505535663252,0.24161878480262974,0.16218332959123785,0.5773901073912884
84,0.08750293851431692,0.12997307314554074,0.3688541797602369,0.05281720435933794,0.17983892252047637,0.5396687900331274,0.5216605263500889,0.24481895634084572,0.012148686106511423,0.6663832442353723
85,0.08261512470092902,0.12116883661851238,0.32220861331850303,0.058723787077053925,0.19655666242659978,0.5103889805187095,0.5034123229691476,0.247626417961096,0.10984437777375232,0.5959994036030322
86,0.08017569478283033,0.11382908224337279,0.25929383150974356,0.06413368274354155,0.21487532561304754,0.6130816528448982,0.48128184528315826,0.25014753217795854,0.06978094945905539,0.7123810753347852
87,0.0808657822978377,0.11369127715007878,0.18818786828871786,0.06627310762053877,0.23309370429472703,0.6847119845951648,0.4518081808558702,0.25259050419189133,0.06601493497969955,0.7016953223993722
88,0.08750312194683042,0.11639427024421477,0.11892922230779529,0.06767962781812902,0.24724807428368387,0.6349344645853807,0.42111974875643954,0.2549655747381677,0.15400513366647733,0.6473990511117781
89,0.09485627454384869,0.1223151907030963,0.06448867658486857,0.06619595719710479,0.2584630800242054,0.5111573117318621,0.39655601985119915,0.25729504626146127,0.02918763498727314,0.5204423007880243
90,0.1030826312682978,0.12820558884574082,0.018823983261246267,0.06778518066943018,0.26655677413710793,0.4716814743492859,0.3761844704462044,0.25956485543103797,0.12269143664863583,0.5328301140082955
91,0.11157307413409986,0.13210842707897394,0.015739939920016592,0.07481713397171004,0.27184639097369645,0.35781445758634295,0.36102984269875343,0.2617618124902346,0.11857610477877788,0.4019344406447196
92,0.11549866611642572,0.13252525015089064,0.032857575188546984,0.08474720151411519,0.2769536614779072,0.22666365247333528,0.3520195481976472,0.2638389688329553,0.014179635450805191,0.26140215966292973
93,0.11881728766045312,0.1321053274642522,0.05128552167854064,0.09184553763694825,0.2787534267439292,0.2412383463583882,0.34568352925817347,0.2658141881428742,0.167043613421424,0.36375064738242646
94,0.11590133957547398,0.13059149266779246,0.044570342028361735,0.09281510092770565,0.28223571509898915,0.0968188281794681,0.34315687529115624,0.26765328869753013,0.01167862949784937,0.1052630446299352
95,0.11023975116711837,0.12710892050654393,0.034823290060473445,0.09219385514319568,0.2874423061919696,0.1172601531087133,0.34440819390697386,0.2693315612633529,0.05949384428351092,0.13126479890732576
96,0.10524525925970195,0.12411243424731577,0.026606932615462556,0.07682411217178443,0.29219982038475606,0.18070334207792196,0.3464216561010819,0.2707598919373052,0.07264403751024955,0.19609155206359807
97,0.10165270446682327,0.12084457611822681,0.02300965372985945,0.06170380365946691,0.2986782363997996,0.21762835893563276,0.3491471109063578,0.27184959816632276,0.13067008658388338,0.28230610973163434
98,0.10560226523960235,0.11781154282904362,0.04258106338194528,0.06353770842953597,0.3003322511479416,0.25297312208901074,0.3478311981359075,0.2726220982833745,0.20731837475891834,0.39301545725880294
99,0.11967332460259632,0.11718067375284807,0.089618697959228,0.07751571586133195,0.2937758644673711,0.41503991507759413,0.3379721527981746,0.2731158833673506,0.14240575796497207,0.4501707436950988
