Frame,Center of Mass distance,Symmetry,Grounding,Arm fold,Leg fold,Kinetic Energy,Potential energy,Bone length coherence,Torque,Center velocity
1,0.19639835696127875,0.176981709408305,0.9330983861178268,0.2020816615060795,0.709316462929439,0.018862327898360134,0.9999999668259241,0.9750459853926687,0.11320927486897683,0.03448446036393726
2,0.19970342872504088,0.176902988672169,0.9333559898491252,0.20130238665574376,0.704039717543844,0.018862327898360134,0.9999999668259241,0.9786465446815072,0.11320927486897683,0.03448446036393726
3,0.2114467528380237,0.1758985823018733,0.935013070087965,0.2001747733648724,0.6938836482122079,0.051687262648458604,0.9990608656949387,0.9834787893959963,0.11993595149890086,0.08133457576364023
4,0.23051580347577327,0.1714958672342965,0.9369277540581034,0.20002691498954983,0.6843908946952332,0.03638423191541209,0.9962586629154443,0.987402545528763,0.05369405802946074,0.06598603075523132
5,0.2533520170824199,0.1662088430407699,0.9398023239692095,0.20081280543350072,0.6780065131938596,0.053340828681446996,0.991669892280888,0.9912776744653169,0.22410180834337212,0.0889813610522049
6,0.2873857966441469,0.16120353256842668,0.9454089270702799,0.20307842457937894,0.6830850060835558,0.11083244950156601,0.9835456625642005,0.994683891245787,0.09377020323593634,0.17144230481910602
7,0.31245527928435685,0.1576198221569516,0.9494540174580448,0.20841227350366714,0.6895784037556262,0.09543338856060747,0.9733340782597479,0.9977217962955303,0.15727522711604375,0.1327736731460453
8,0.3463043222325152,0.15443821361493548,0.9552401260975041,0.21669977670151985,0.6960722254195946,0.1375390308670265,0.9610947450607018,0.9995738672773354,0.23855098681167924,0.16631891257532566
9,0.3941979949814616,0.15181546734632298,0.963194487198009,0.2291587541198641,0.6928322444909735,0.20411171070416456,0.9432113296568726,0.9999937560603388,0.06709206351925567,0.22668329071519464
10,0.4353141003624932,0.15343932437125837,0.9698849658935532,0.24818596768078383,0.6851525513455001,0.24187397045779926,0.9231707744900368,0.9970974242203751,0.44699556196852386,0.2110797866986919
11,0.48968200331722683,0.15353577317221218,0.9787480581173981,0.27717267651442634,0.6709167746053595,0.3576556486792547,0.9004306099366971,0.988393135253798,0.43358113598842124,0.23173934165026286
12,0.555117453547041,0.14806776375106864,0.9882782933768238,0.32217185513366053,0.6509555909757144,0.4942726195767725,0.8707622456724834,0.97057361263603,0.6240602021880799,0.19765455381146713
13,0.594239713253549,0.15489279285981455,0.9953880109917521,0.385254120702329,0.6298282694071632,0.6720157353837676,0.8412279864370615,0.9409046197245727,0.38005973651337016,0.15418451003324715
14,0.6210687707755915,0.25041250034650203,0.9993753798974018,0.46355807348995576,0.5945401947121107,0.8036344611803691,0.8154607686915485,0.8988276364596228,0.1143884889166697,0.1625940191981347
15,0.6105931852677654,0.4572082918847312,0.9991474514743206,0.5499402358133425,0.5444044868726005,0.8920794891936741,0.7926861088720805,0.8455909528016866,0.30473691740154507,0.2864871674633735
16,0.5756227899006282,0.6652809040181763,0.998075380837761,0.6369509903977396,0.49205363555275794,0.965697032534043,0.7716678832975287,0.7834507510321588,0.05863550929757994,0.4184409094142882
17,0.5403004094170083,0.8096423033204325,0.9935560118542227,0.7189460638947087,0.43562845529229904,0.9692707460431549,0.744247898812637,0.7146165372754709,0.22316582730206327,0.5407563042895329
18,0.536236516716991,0.8702757984799474,0.9917680244069208,0.7892023641567686,0.39712497699253324,0.8493672377837016,0.7019952296053958,0.6433449490372746,0.014391291813056182,0.5219585659892
19,0.5272025842480325,0.8834538871347968,0.9877795276390501,0.8491953812096888,0.36275298177679444,0.8237409796636371,0.647054455693848,0.5719437901613935,0.2955003584217186,0.6032074527027931
20,0.5185897264070268,0.8691941429617995,0.9822313979282422,0.8996667132568791,0.32382748214407336,0.7461027108874524,0.5861430453478271,0.5018332766677107,0.3205815525249543,0.6480703263436662
21,0.5089390989562848,0.847749952595787,0.9759135899741532,0.9398234818088489,0.2827100330102145,0.6418811757151713,0.5234154983813333,0.43416961782328134,0.33697900605261266,0.607021383691993
22,0.49534882367014377,0.8262451083185278,0.969040197089952,0.9711048192489276,0.24231325359687578,0.5245224559355832,0.4661013731785407,0.3698419996857653,0.4223901280571028,0.5781557730913717
23,0.47564334334421243,0.8104136188808446,0.9617960132346641,0.9915139052742462,0.20670114020770045,0.38203489019684084,0.42264007666172965,0.30926340669296476,0.7487704559977132,0.48417775573073946
24,0.4755688491891664,0.7979856602187413,0.9592390994522286,0.9999999566972736,0.19245330093133822,0.17362289218437668,0.39790522669091694,0.2527161131024839,0.1954930015724362,0.24208628996024809
25,0.47136929949289835,0.8003889954283048,0.959237570572329,0.993257915779303,0.19924619397569174,0.1019397572239315,0.3953413903886459,0.20134915079616325,0.6884586918121701,0.004162994928645964
26,0.48818801135932377,0.8047593428348634,0.9639186499347677,0.9721245558180345,0.21352514652788826,0.2968404202939513,0.4142078853698288,0.1551233532907934,0.5583439743196114,0.22466740121120915
27,0.5033147321926503,0.8187632122091713,0.9698133090471063,0.9367174720546708,0.24354440838663277,0.49098450064928095,0.4511868839550406,0.11458598911228401,0.39930385054663653,0.3873885090706209
28,0.5074562217849649,0.8366355943852495,0.9741583355948681,0.8909992711398205,0.2697585183723226,0.6244453088521147,0.5029137894088596,0.08021782448397663,0.2876135570764908,0.44948588386917676
29,0.5238130778228114,0.8433593970628315,0.9796422523498882,0.8347508018293982,0.30645014579738333,0.7229346998393329,0.5617907114027277,0.051818511430233145,0.14524353638226736,0.5299374540713694
30,0.5500366979057588,0.8257776197711305,0.9859237682040628,0.7669985595062101,0.3544413152435005,0.8100798849751925,0.6192221930132173,0.02995360319184578,0.11122971859252488,0.5863302940309971
31,0.5949090326493824,0.7620981036785043,0.9933408909332522,0.6937665218284143,0.40874969155636953,0.836691161029364,0.6664597990548873,0.014277885129971243,0.020981046777987657,0.5666212990330702
32,0.6511383549277465,0.6523442206194935,0.998325891568869,0.6170366130799925,0.4657507103736261,0.8064353794574752,0.6996317793861906,0.0043949797697582236,0.10787447572446764,0.5818323210345436
33,0.7127018322639074,0.5053451884737339,0.9901844055940817,0.5388596307556391,0.5248019031553326,0.7651208483345967,0.7189401335418371,0.0,0.16922899770525612,0.5348284529237834
34,0.7628865197509225,0.34752765551921566,0.9840197112024078,0.46120342737852144,0.5768397746772383,0.7044424998412702,0.7302111338737044,0.0006944889193534731,0.20883140181687315,0.47830745213685166
35,0.8065279461790038,0.2093394815424569,0.9788915973827362,0.38570568076074596,0.6233993329552835,0.6354820169273678,0.7374581614968335,0.005945884329316417,0.21486263034799025,0.4419146958663466
36,0.8441389644025418,0.12162394374411604,0.9746817889834815,0.3128215857043111,0.6606491037222308,0.5757627292470334,0.7415782420021956,0.0151956923124605,0.09706576403230037,0.4291727681239979
37,0.8735781421695447,0.08732897026598152,0.9718570956461526,0.24295894679991867,0.6948537886782665,0.5361232413133165,0.7457408199570857,0.02780913510708711,0.17627658247235028,0.4120627785728483
38,0.8914886684154825,0.0741780291596092,0.9704320041343899,0.17680848195772944,0.7246219791513087,0.4908475107546152,0.7517070253040422,0.0431754668675028,0.12256330282867821,0.42248505372111084
39,0.9038836913506132,0.06395889918867737,0.9699305565908904,0.1179671583840187,0.7580801749864049,0.4562951508904783,0.7589923864932405,0.06068290041511975,0.18300436446644244,0.426124521041033
40,0.9059246150814202,0.05386935590075057,0.970906984511101,0.06720044917173482,0.782062830959152,0.40693508083312685,0.7668466075841577,0.07976299849056208,0.17748556121601028,0.41978983548362575
41,0.8958171107957161,0.0479972851423455,0.9729560094035743,0.024421595045861756,0.8121215363701901,0.35494519704860467,0.7760484029490956,0.09986664581180191,0.11235367164082616,0.3990429433613
42,0.8870177182434068,0.04273107536126639,0.9748366319346354,0.04656798320894506,0.8395251775481546,0.31255015029189503,0.7848332054160533,0.12047783974318453,0.03483693070441965,0.37762037215412186
43,0.8744859009798476,0.03979226074382638,0.9774865066276943,0.08643169219591854,0.8585350000178625,0.28922246808932733,0.7928045629437194,0.1412583000244674,0.10482880655286914,0.3507734283716433
44,0.872556037033365,0.03764002328694179,0.9791335864881737,0.12154310970673739,0.8707598948355754,0.24783148215351014,0.7993746752769241,0.16197248679185502,0.08664921960985944,0.2993194586279224
45,0.8714691005777828,0.036979453519255676,0.9809947847254271,0.15314568525639105,0.8713919318992437,0.2120695254311991,0.8047248887208122,0.1823022785916102,0.11250814846604273,0.24689696366154576
46,0.8735084354608899,0.037436748100234264,0.9824569954360665,0.18123445981709027,0.8671918746385426,0.17168195111262255,0.8107001347632171,0.20209112959634795,0.13184952664237687,0.18832202443290633
47,0.8711809759048644,0.04002817329948922,0.9837261662616638,0.20380905292526014,0.8732273971100103,0.12354195699214947,0.8167564016000242,0.22135659903498914,0.12632773536778735,0.13469121705237516
48,0.8735604746032217,0.04118395417899366,0.9840023421242029,0.21769329585489702,0.8777130847636935,0.08260045565831652,0.8208917618637983,0.24008777247445398,0.17283399178949982,0.11596839507644381
49,0.8688882772749316,0.0424620110797523,0.9843313019386895,0.22338069533358484,0.884021639657271,0.022111819789564245,0.8224514669724926,0.2580655812000188,0.006805945962056168,0.04981609919006991
50,0.8558816292596066,0.04359942197465285,0.985012179829763,0.22199964584674664,0.8970429844773943,0.016842655080985373,0.8231725833424242,0.2752758261696509,0.057713737965178175,0.027008238154529695
51,0.8487219091724384,0.044299589058721243,0.9850346117561602,0.21535156979571982,0.898001962463103,0.043825409475071166,0.8229030913897257,0.29172834599725966,0.070556633154222,0.037028867623006646
52,0.83675095983854,0.044607790946087134,0.9856965666255243,0.20254907402538633,0.8968170791848166,0.07551133207660334,0.8227204025933056,0.3074812375789557,0.08985144260340712,0.09283101570865354
53,0.8210636172963639,0.04659302260747234,0.9865260716937333,0.18385468996950557,0.8958701950584882,0.11058489250588557,0.8241958526672835,0.32255985412358174,0.053437003147270484,0.12289384566710665
54,0.8003530981755843,0.0478890507775728,0.9878430638775052,0.15828758876767374,0.8966215988798042,0.1354719195209492,0.8266171758406272,0.33695468417187496,0.024820405895646228,0.14735595083742759
55,0.7772911356283955,0.04930222065688557,0.9893691115898585,0.12635400004337174,0.9027024887325256,0.15246744958675496,0.8295305899052754,0.350664405441119,0.09395674721854473,0.1666720187709423
56,0.7686244465996647,0.04704868138848412,0.989188979461347,0.09067437847784737,0.8982526646502215,0.1871967871513853,0.8288164046113534,0.3636027142507632,0.037072367520557925,0.20617596769011373
57,0.7492126304029224,0.04786697171205294,0.9907955565362866,0.051828340520943886,0.8845719138498602,0.21037489769537723,0.8271609405976914,0.3756719326704648,0.0,0.26520053687142026
58,0.7375109402791015,0.05063943816258947,0.9919205865700279,0.012045524684286876,0.8654995286070561,0.21805738722625886,0.828887808437834,0.3870189114456432,0.038043805922596145,0.2929394296446778
59,0.7378887971202283,0.05340730868360731,0.991363497823621,0.03319995782521105,0.8452616901048245,0.23829527776851323,0.8279449365173744,0.3975755836700263,0.001441371942632396,0.312422520266611
60,0.7406564519845893,0.056628125547720606,0.9907076334102509,0.06928485525305,0.8185768058052787,0.2504650168879629,0.8223886574757062,0.40735372828203714,0.08486254465286026,0.31925301174822585
61,0.7569308714463624,0.05968234461423066,0.988420378953077,0.10895470934334998,0.7858854684651968,0.29283343987464444,0.8119300323390763,0.41627395033268877,0.15679830888965593,0.3568899268199532
62,0.7725633825512882,0.06622050623211892,0.9859185048470311,0.1556117188620906,0.746851449090233,0.3580497183842297,0.7962384017614667,0.42414055259449657,0.17664379561213425,0.3723243397613747
63,0.778398071760795,0.07410078825394528,0.9849541325207838,0.20864292249499644,0.6986632995669977,0.40986608586681195,0.7787697185969555,0.4306129391401141,0.3731783838685063,0.3559336808152619
64,0.7807893307851441,0.08255716865518248,0.9834806933151434,0.267925889781066,0.6596510605032609,0.5124434325591973,0.7610485901775823,0.43524270488728234,0.27691356815927054,0.3721531110302324
65,0.7642238193039367,0.09994151044039873,0.9839444702604582,0.3326589240965695,0.6191002614997096,0.5926419811936258,0.7457906467945119,0.43762981959202346,0.17416737639582186,0.3713458994281767
66,0.7529022697391113,0.15474969538292563,0.9835671627520941,0.400751852057792,0.5851193580897822,0.6461056967745246,0.732082694475833,0.4375486541281925,0.06882057534255295,0.31354115640684094
67,0.7445176270488103,0.2856890063561871,0.9829334545654673,0.46774210191413607,0.5596164279578199,0.681231579268827,0.7165499138250213,0.434832569728452,0.13880530082835799,0.29604455312603145
68,0.7255052769457448,0.45491615273054403,0.9832052442971467,0.535746179633248,0.5458822445387527,0.7291845834348157,0.7010343094565011,0.42941171153576424,0.20920138560736176,0.28581358211515434
69,0.7091265439193799,0.6049444251121137,0.9843419289071725,0.6019984337498133,0.520193304931209,0.7116938521471897,0.6828733723777284,0.4215826201337118,0.05599395224348843,0.30181333430801466
70,0.6886646599808754,0.7225337351703133,0.9872411363419085,0.6662261535935963,0.48243693159831014,0.7308924649086037,0.6589322696424126,0.41151459709362703,0.16131463007598681,0.3939165707059241
71,0.6653374872832195,0.793950127127243,0.9914978888731658,0.7270503208023309,0.4259195273271373,0.7232601248575709,0.6263612413435395,0.39961082656848984,0.04884940593537235,0.46440009105030416
72,0.6174742902662631,0.8296106354611471,0.9998139929833837,0.7820834601305076,0.3559316291848528,0.7121305848046431,0.5891197698097624,0.3863063497339824,0.16980445340019001,0.5920687357161444
73,0.5638952993193386,0.840077026980417,0.9889015500402017,0.8290027835319774,0.2753767821428952,0.6505166625472404,0.5531442139141951,0.3720749794504517,0.02985969534252552,0.5982048390844086
74,0.5105429366095166,0.8378536165752116,0.9764441363629569,0.8702924969680267,0.19537916671470443,0.636431122975246,0.5142696206956212,0.35716302569911307,0.20629811569475384,0.6433247803656584
75,0.43036030840302897,0.8427315128199063,0.9598074417572416,0.9060030103777191,0.1377961497178892,0.6307096844306208,0.4836393607098621,0.3416877964977732,0.5216625157999171,0.6937626478274296
76,0.3994545401679364,0.8302140638567561,0.9493338875996956,0.938006326665308,0.08367667950227195,0.5342363953120212,0.4507980638182537,0.3258034707548216,0.31452375285006995,0.6119548358233612
77,0.3762832718081478,0.8186478579885609,0.05908910278092235,0.9644320703243765,0.049603490974452824,0.43717213132765664,0.40773114803801547,0.309718411978766,0.6787433478026701,0.5373156081742831
78,0.37198153194512157,0.8061280614971937,0.06356433475620855,0.9824713455688288,0.023735111693745092,0.26621843626194125,0.37011177708069953,0.2936641013224823,0.42420554038000513,0.3302357408667133
79,0.3696031702890223,0.7987524943012018,0.06585667712517979,0.9892547551584513,0.013723274861054322,0.1226825881535844,0.34211761471964675,0.27794738976006683,0.3266938030976872,0.21334395573378614
80,0.367699992535974,0.8009519076237284,0.06499386252604092,0.9809198944181103,0.0032086969757967394,0.16056333396416098,0.33387385156449034,0.2629153879334868,0.5562141471904611,0.13498479511759645
81,0.35755518307869405,0.8141824442011335,0.9363915432945892,0.9615936497421897,0.0,0.3361901428778761,0.349547629553921,0.24893181969749226,0.37159515515493075,0.29740751393986975
82,0.34749080294990475,0.8334285206243089,0.9396050483349372,0.9303840403241164,0.016158453978601245,0.4692329350842822,0.3938534769744047,0.23603191790580386,0.48418383874478743,0.4228141517810177
83,0.34399451876838416,0.8495383329425088,0.9438904485666104,0.8868809206865138,0.02674161386634374,0.6188898788078352,0.45447479299938653,0.22459774434608157,0.15555005478068315,0.5620184236281822
84,0.3460975695059289,0.8566467811044042,0.9482264522166035,0.8358868463626934,0.04848532210552674,0.6749243453237532,0.5191534085598061,0.2146535518128825,0.20915144773112448,0.5630945374792392
85,0.36395133784576206,0.843062088290707,0.9545092964418386,0.7762439790153266,0.08074771543373341,0.7607878834301756,0.5823585217515342,0.20653354099823767,0.1284772210763696,0.6283206389278934
86,0.40037713174207945,0.798510877777317,0.9621434198623667,0.7110027684038106,0.12462748691610118,0.7520873198340855,0.6342618272560112,0.20022549615226976,0.03185895677414844,0.6088345582245795
87,0.44355344579822875,0.7138169470101413,0.9698236603159355,0.6421618574743181,0.17679014235883594,0.7612885998513658,0.6740262957779952,0.1958914753688249,0.09205651028143884,0.5695670926338473
88,0.49768970680924024,0.5874671505547275,0.9776074886486106,0.5699972716841343,0.22951503370536694,0.7616318430110686,0.7003400928058987,0.19359347289626685,0.2815427929411348,0.53934800799751
89,0.5457005282345709,0.442768839370497,0.9839973043396153,0.4967683023458488,0.2851938078049897,0.6953917387328543,0.7176641052262868,0.1932831835164693,0.25160103989185495,0.4581788027620047
90,0.5944491811949846,0.30001370965263296,0.9904479493997446,0.42466704006013384,0.3417875070177114,0.63388349066993,0.7295194637773861,0.1948518792338575,0.15081351012836539,0.42899381597113795
91,0.6315819365950198,0.18982588096765604,0.99504621861155,0.35355841042617075,0.3980061298975246,0.5824642964564356,0.738858404710559,0.19816774043169963,0.13820871842094498,0.3623282386570347
92,0.6655669299219474,0.13115639206279608,0.9988692955869933,0.28266898483784203,0.4479415170186482,0.5401824541551278,0.7478618477014031,0.20309701991152646,0.27664342133524567,0.34396240978209836
93,0.6866499354191722,0.11097840429275534,0.9987608954957435,0.2175298131610513,0.4960601428378794,0.46905807816281236,0.7569266789683964,0.2094121336256877,0.17710220462979792,0.3095680123048685
94,0.7015647972979975,0.10169100014262764,0.9972939728273805,0.15746626252568421,0.5392088961528076,0.41512065284865973,0.7662714644574493,0.21694630299127066,0.16756743118335124,0.2839393020933947
95,0.7079349926848852,0.09236286447128277,0.9969700507974816,0.10364627814112397,0.5794633359758581,0.36155456432224564,0.7755105989229502,0.22542671247240992,0.12563657937173742,0.2667727437013315
96,0.7060944467717742,0.08360539687701828,0.9976673202861684,0.05493263554371218,0.623227818695921,0.31626275375623203,0.7857086781155308,0.23462993506334123,0.18028659316780687,0.2144707428728963
97,0.693477210459111,0.0774907652163813,0.9992653757354375,0.01860915865621496,0.6669184093231704,0.2679155166217916,0.796422398814835,0.2443885898020976,0.1879890600819444,0.2251927769071598
98,0.6719109365720196,0.07663760405327576,0.9985039434181728,0.05803295334531102,0.7113183706378711,0.21496449459636138,0.8081122397099917,0.2544267330837361,0.1333625715363963,0.20670264131660945
99,0.65188024202623,0.07723926510217709,0.996327344776691,0.09525501938446236,0.7469949362054629,0.17729558740458454,0.8191994894140906,0.26454301270306596,0.1266428466366177,0.20010833204093956
100,0.627560295291951,0.08025393795219121,0.9935434299245561,0.12811116817836926,0.7716232748742033,0.13530844186169871,0.8284981788361164,0.27456495999134256,0.05023178931702317,0.17409256423187033
