Frame,Center of Mass distance,Symmetry,Grounding,Arm fold,Leg fold,Kinetic Energy,Potential energy,Bone length coherence,Torque,Center velocity
1,0.5343550997387887,0.3255923325498017,0.821684551851619,0.4864834881836752,0.6094382674349971,0.11250381036662435,0.3611792646975902,0.6573290971253982,0.11386367172946016,0.05001959047452498
2,0.5495160747893499,0.32388023304348873,0.839586303517704,0.4588223618920509,0.6205861643842405,0.11250381036662435,0.3611792646975902,0.6436452009197556,0.11386367172946016,0.05001959047452498
3,0.5613104638910882,0.32160374787180085,0.8537685984172747,0.42512677832927953,0.629850617032137,0.09670268211735032,0.345339052847941,0.6277528851089348,0.10450427694760635,0.04517741674924802
4,0.5784843235034496,0.3170654961023137,0.8743603081527387,0.3846409395511722,0.6453615727031827,0.13327237325954194,0.3274679852134657,0.6090792246292661,0.008370586463630963,0.05558034697082649
5,0.5954119155605972,0.3118814508439651,0.8950183251723547,0.33635264492361844,0.6600263570699296,0.1475704145819501,0.3072192609386467,0.5882819555347053,0.0977271317599239,0.07635334386353657
6,0.6091897729400794,0.3059696011184546,0.9117140480156966,0.2835687603629699,0.6725172613444271,0.13673758864153815,0.28949359545535325,0.5696480361337516,0.09265360496052102,0.05615583745997608
7,0.6298614100826698,0.29592211726466905,0.9358799286620847,0.22573793257748065,0.688652929264247,0.16889881794068864,0.2707760281573882,0.5493307173281018,0.02148202967355136,0.09092664445959928
8,0.6548680202680027,0.2821177991247578,0.9643495339243467,0.16415506965933507,0.70629198875049,0.18638104683939244,0.2476528974136747,0.5276130503086163,0.2249930114018283,0.08367276178228943
9,0.6694585305257621,0.27276751889297374,0.9817583204412388,0.10430714101774101,0.7139190291714653,0.15203587865711235,0.22630366964859505,0.5058843842375323,0.009036570474369598,0.0691332527404913
10,0.6861491821796022,0.2613245217437516,0.9999999403334217,0.0865539474030934,0.7185602044465667,0.14784848938428438,0.2090828028399468,0.48507496500163944,0.021614916802054542,0.059800667330297964
11,0.7069615380633816,0.24737659127513972,0.9777245116024759,0.08360334137871242,0.7291247622218431,0.14974631434649116,0.18998678313207665,0.4619728910544523,0.041215343275135465,0.06275933284585931
12,0.7298449096614273,0.23436124575629788,0.9545641757128734,0.07968133944197714,0.7357709767846902,0.1350285364395954,0.16982877623487924,0.4379969321392646,0.0156856280349698,0.05094878731255097
13,0.7569343754848897,0.2211499338991262,0.9271367404350312,0.07420195768529857,0.7491294186389248,0.14742796381118972,0.1476284944903805,0.41109306926219646,0.001928571346058191,0.09286954410437412
14,0.7902637098685754,0.20733779285072548,0.8949197321425163,0.06876967176169756,0.7683824576120987,0.1522058901175343,0.12163551501948952,0.38176077061842595,0.01735704343393833,0.06269729554171115
15,0.8236538425835129,0.19368330934537456,0.8624053825469848,0.06424881837339408,0.789265084672237,0.15724259218492595,0.09384815877994367,0.35127435598172657,0.22656646615938542,0.0831235842963086
16,0.8485244849366952,0.1804807191137634,0.8381120947106285,0.06215391590689637,0.8112727417313764,0.10933493725051681,0.07212408406327409,0.32092984288954945,0.0704989628573572,0.045947943212442756
17,0.8679797635122743,0.1679357258210859,0.820635438696084,0.06343804768144157,0.8193404366601142,0.09289464946258237,0.05977949267047637,0.2927853695903008,0.000664420447746334,0.059501769066302376
18,0.876364318462386,0.15750495684766988,0.8124128147234071,0.065280764651179,0.8312342576544706,0.10106079553045161,0.05426023291172732,0.26735066807580987,0.0053262846805735235,0.07232832519150768
19,0.8693505719237864,0.14922128408567145,0.8171674983032251,0.06983467819302143,0.8449300172435166,0.13088721877844423,0.06033101317966234,0.24578735614445232,0.15240064447045176,0.04414109414945609
20,0.8496041912762762,0.14541359282678576,0.8352285957464082,0.07394587828410547,0.8499999913169418,0.19149069227863114,0.08018280252433337,0.22808930695649746,0.04650228281506358,0.04934016044294169
21,0.8252275848031859,0.13905257659654352,0.8565076794222954,0.07962833537992467,0.857076614083013,0.23490570406373518,0.10908073628117079,0.21519967731279444,0.45936342115147377,0.045618699490328714
22,0.7848142849637206,0.1382674448047836,0.8973133903845466,0.13664740589985194,0.8336482215046949,0.3446256527742703,0.150349447426905,0.2083806580436959,0.3074168043394051,0.0599231618762509
23,0.7276937545133982,0.14832083101584156,0.9585873962156856,0.21629626292829623,0.7873669496632271,0.4375430930017698,0.21165537178529345,0.20791408270840855,0.3396578772499079,0.1192384975405898
24,0.6621260984858478,0.16488765832851074,0.9660013143326979,0.30502901906461866,0.7282570700016575,0.5507411741482741,0.2876527999044956,0.21163017773670625,0.3533658048104308,0.20589091791360487
25,0.5792202816342331,0.19899119202229407,0.8709013938823301,0.4006699773923996,0.6780934529356967,0.6508012445245835,0.37975412720448587,0.21776170317171004,0.15690484718006514,0.27832070974196377
26,0.4936882276535319,0.24708151182215288,0.7676956683133015,0.5002628212126957,0.6299767851510967,0.7378250141808089,0.48463556429533927,0.22272760184906526,0.17597505528857232,0.3708953513319092
27,0.4087543604002041,0.30117243982188086,0.6583586019115513,0.598545685376348,0.5741315543923797,0.8566055541103261,0.5888827484681596,0.22334938478104516,0.014160867373399723,0.4700995321778884
28,0.32923285379347556,0.35636439943080983,0.5478568185551949,0.6886504653984776,0.504382637172609,0.946448717467058,0.6862703657303589,0.21700389027941228,0.13933632903074974,0.5487341391261059
29,0.2552321436878283,0.41658437698986656,0.4419677309293467,0.7626931662413798,0.4336795558621075,0.9445309562312068,0.7752329289303241,0.20381378950613988,0.42493128272094904,0.48428954055604084
30,0.197203476567205,0.48486091667952785,0.3558682431958576,0.8193959704747267,0.37900622685088836,0.882894672107663,0.8492616801546293,0.1848391204337312,0.6768475044183125,0.4855423728420615
31,0.15733449200071498,0.568184681104237,0.29622640331466804,0.8588551841239563,0.3402099670653987,0.7716993190969936,0.9006248731379566,0.16015690040045466,0.10925691462366383,0.3560770172555703
32,0.11283675726093179,0.6648851623469697,0.2276717882519331,0.8809923291987553,0.3029933842327567,0.6667708362345663,0.9425608942330176,0.1319181962649927,0.999999999798855,0.3465837771145966
33,0.09227087643687747,0.735690580563418,0.19558583231422053,0.892436666076537,0.2791418479144743,0.43261317399346944,0.9722726661750287,0.10275223457806257,0.47901269407245944,0.21712719035892591
34,0.07330718649349545,0.7814059720975369,0.16816985326871875,0.8954753542520244,0.2692434369309,0.25438843785091914,0.9887017937954727,0.07468387474849666,0.7341861483237316,0.10758175799806437
35,0.0687109964255262,0.7920564327712214,0.16011646909197935,0.8941230581563687,0.25905885673338547,0.05869772461844375,0.9988043651152387,0.04889836758565651,0.1923619713804407,0.025150568587049876
36,0.07170111527042776,0.7691693060576306,0.16338097457115688,0.8872574360552606,0.2520766443854853,0.16639788488507512,0.9999999477582965,0.027943329138943256,0.5991205625041021,0.11008451436624014
37,0.08630366013892297,0.7181630028571954,0.18514955181067977,0.8726830699765152,0.25268314627734584,0.3483393294639664,0.99200322968866,0.012335306194994953,0.6311779595302554,0.20639124664614145
38,0.1122057073892937,0.648252463776897,0.22570982167400203,0.850927204621063,0.26986448699350446,0.5608255530119296,0.9732166598791535,0.0028939054418922416,0.37000297992418785,0.3705727465536818
39,0.14502966715744417,0.5762009346872893,0.276869883720632,0.8246920255585364,0.2954153175491354,0.6871390265605974,0.9457992467280422,0.0,0.2372793823797402,0.4030243286880893
40,0.18284937616555658,0.515410658929803,0.33766394284841955,0.7929885961196211,0.3365435156608844,0.760370025650295,0.9083707161901913,0.003206469698216195,0.14286826732001498,0.4317712711137893
41,0.2288407331263942,0.46292711750759713,0.4086554373933791,0.753032867569345,0.3858759484730532,0.7906965011631293,0.8595845306361534,0.011868330061670289,0.008171144367294696,0.4327549674895175
42,0.27826844369336673,0.4177015496048823,0.48331431492148647,0.7036980456291091,0.440000025511729,0.783171888521246,0.8007286018057366,0.024807550445228737,0.0062219607897437395,0.3975606222244827
43,0.33512506291862065,0.3756819641652891,0.5632498289180113,0.6447098877219846,0.4921181372963775,0.7418470453443514,0.733100627739412,0.04023573822400081,0.11030984974890916,0.37048104212203425
44,0.39063462571591945,0.337163946421457,0.6411938678593653,0.5760852351960686,0.552721586668245,0.6826029306778278,0.6592048999765451,0.05652420854525435,0.26126806599336494,0.3160703106246515
45,0.44417990642593835,0.30458412170129007,0.711906246925486,0.5017029102169331,0.5992759946834474,0.5898330849266055,0.5838992424404292,0.07226890618099274,0.13497348622102823,0.2277485980971285
46,0.49952753656968635,0.27595074312285367,0.7823441971532711,0.42201806853313417,0.646886449815074,0.5225167509984799,0.5068546882316417,0.08647557359091307,0.22000110903288367,0.17499129653040732
47,0.5491944349194592,0.259028287225509,0.8430151885730388,0.3413475772724717,0.6887309344390031,0.46345508869395224,0.43268066758777485,0.09832876307134002,0.27647360039553454,0.1334213192977544
48,0.5888024482664309,0.25053015368668624,0.8885672513097691,0.2613376547792892,0.7082097613142775,0.39785723711121757,0.36985364950002647,0.10800593875844246,0.1828628628373762,0.12461097782846499
49,0.6230366623583313,0.24551600809490642,0.9274221047678739,0.18600103674013915,0.7209095654988258,0.3573049971898791,0.31831465579445617,0.1159926974174492,0.1085222137177264,0.1378249250344222
50,0.6593777927233437,0.23911594979347062,0.965520499732957,0.11692520514596524,0.7287300026122924,0.3058302070615801,0.2679236314341753,0.12169139223863987,0.10101346425057604,0.09714614689266485
51,0.6947003152843627,0.2320510039119709,0.997306163519929,0.08978171735098828,0.7370133966876972,0.28005679081029294,0.2182734406053691,0.12530606595213473,0.23031942575819186,0.08997271010929972
52,0.724417813490116,0.22700744806130113,0.9681623763423627,0.08730721720833463,0.7342323265193088,0.22826416329467125,0.17471717386391392,0.12699130832514854,0.17672048288650535,0.1350566667154161
53,0.7487787971516578,0.22303231639753943,0.944475921661492,0.08329886571729109,0.7357851063557271,0.18280643569577038,0.13635018812330457,0.1268799831382613,0.03697312637835408,0.10555442632770895
54,0.7801691956259047,0.20982637038078608,0.9122603020031993,0.07696182582850353,0.7548503305216774,0.20666476204348055,0.09720069100435876,0.12518237244724253,0.05568175067060593,0.17075738331533594
55,0.8167651428384136,0.19496853704278336,0.8758753080901163,0.0722185495073181,0.7791823310509433,0.18332297039833456,0.05417762356519184,0.12224289537671423,0.2819506954973212,0.13830209530806828
56,0.8346799172778746,0.18806997089545502,0.8573908507881728,0.0691960503362637,0.7930825597478305,0.09234716986638539,0.02273743512985911,0.11901806500612044,0.16197497983447787,0.03321066693285511
57,0.8429232522627526,0.18276486904843312,0.8478846080555384,0.07016844301137654,0.8062121721165193,0.05480824517649099,0.006834430381464114,0.11608179894989895,0.02254342939007724,0.0451374582156985
58,0.845510457698596,0.17690589642357768,0.843415115229285,0.0738277929608219,0.823906794037114,0.05868824854017892,0.0,0.11376968635596581,0.14107902850166354,0.00613118777838134
59,0.8331315523451477,0.17603768561363375,0.8538329963293699,0.08054867415357861,0.8274761411732837,0.1149428550704538,0.0059463598664008304,0.11279061709298956,0.0520711239667462,0.05934034971618067
60,0.8145063284478119,0.17465395062499173,0.871415188544869,0.08710551730599862,0.823407775343089,0.15745662777373928,0.023912215378138438,0.11330989032939716,0.03321857929594861,0.05745327839377574
61,0.7965112411074432,0.1702828125111318,0.8892457727070209,0.09335392096805667,0.8143743221185831,0.19701812262724638,0.047177219006306136,0.11560144465519633,0.44208317169531713,0.0772705699023057
62,0.7558109013395412,0.17322510587478515,0.9300400274369309,0.09962991416597863,0.7865706465348395,0.29597543462736936,0.08253247589793883,0.12035291744264982,0.07361778063796089,0.08005337887773697
63,0.716872880320082,0.17329465038301015,0.9716409050711725,0.16004294346000428,0.7484879262301323,0.33963607929357337,0.13092190764215975,0.12763354720963915,0.3221473638881564,0.062190739130974185
64,0.6688507914408691,0.17701022398460256,0.9736559869081358,0.22898698359514943,0.6931397385241602,0.4347841021642572,0.18665106907803503,0.13735077600165602,0.2514292786769809,0.06148277222967353
65,0.6171649597899506,0.18367295173348439,0.9118596810298417,0.3044067079736045,0.626916203919438,0.5160598799871409,0.2516623221398994,0.14967506487772478,0.14393301646421963,0.09088848610408476
66,0.5563480102538515,0.20130882026787136,0.8407997962493956,0.3816569920233012,0.5746729751915554,0.5666406336220086,0.32791306688051447,0.16495682946545415,0.014356397119614107,0.07712756701235854
67,0.49633043555202905,0.23063981450484602,0.7658697878892325,0.45483984995638516,0.5079303933315213,0.5974518918290902,0.4153310860374721,0.18333774355850987,0.06747032106738411,0.06654379954963004
68,0.4297561699160304,0.2764820206657842,0.6820905343632282,0.5248007920995456,0.4473190452958348,0.6357508906919103,0.5106968931643899,0.20464418429065848,0.23886971479356628,0.04217671963038917
69,0.3750645117203055,0.32532649972548305,0.6119499254384595,0.587975117683259,0.3999151255487964,0.6353837222496659,0.6021049587728768,0.22770902533421813,0.004884007010366161,0.08544571928758068
70,0.31953707196573233,0.37567988646108147,0.5376776089622016,0.644961545212817,0.3476069112417546,0.6693991821065433,0.6804693136788992,0.25149900267709296,0.30224090560067896,0.2230582873083459
71,0.27531271648082556,0.42376459329224114,0.4755685132251593,0.6949114417049802,0.29088848424804564,0.6264008908754437,0.7472712835922215,0.27566369856977974,0.36410588958119416,0.2020691272665858
72,0.24327787828804837,0.4643078688594533,0.4313733197036532,0.733261356919275,0.25367227523312125,0.5534194121718881,0.7983769364599386,0.2995926336755242,0.4177830662807226,0.20750770268974852
73,0.22227477409891336,0.4988181486065219,0.4023753391195103,0.759930250635333,0.2245170229227995,0.44242989405943917,0.832024472512644,0.323204224456764,0.344402515818754,0.17735679643424299
74,0.20949135216943218,0.5235356153712696,0.3871441046436814,0.7769362884642758,0.20986611454667672,0.3367593899988819,0.851299024986929,0.346365024419274,0.42089690146608255,0.1686462708279721
75,0.20126764487077353,0.5400921016952048,0.3809426377826941,0.787660800393715,0.20726908622452403,0.23069352746254426,0.8614920536126978,0.3688364753359626,0.29359721443363845,0.12808324883223682
76,0.1963982967083464,0.551629453108848,0.3742764991948097,0.7927497674168524,0.20157812853994048,0.11797900722087105,0.8692405232601214,0.39034355416582395,0.03798358059358073,0.05960424815832174
77,0.20609354031049937,0.5429846445191461,0.38868861305830016,0.7892193739448977,0.20967684910053444,0.09775840925540143,0.8697243679378567,0.41149846962753234,0.2594309199512391,0.10934037147833187
78,0.2249273431371349,0.5191868627353848,0.4154170445841004,0.7799333458546497,0.22499311136731148,0.18169691230749452,0.855680316583693,0.4319613664137004,0.28543629021932143,0.10241282420599081
79,0.252086044155517,0.48737541303766324,0.45193829823032317,0.7642161439350221,0.24868409782363868,0.30727298871579806,0.8322097728683642,0.4518098158595084,0.4338954890178664,0.1852883300372405
80,0.2933041112838497,0.4410805981142588,0.5098714237000148,0.7452339568894322,0.28841394159210487,0.4083347566784248,0.7954348793773454,0.47085243557111456,0.1325778806730952,0.19281734274898787
81,0.3394162566362822,0.39158324692981317,0.570918214256403,0.7163509012633541,0.32950856087101127,0.4688402233289633,0.745045777720292,0.48883461717527227,0.11127637377488399,0.2097666352049288
82,0.38911419145083376,0.3425405182756375,0.635173097026656,0.679300319270945,0.3752967517186804,0.5142227686454123,0.6879576280673259,0.5054914320212613,0.00829310506118219,0.21047912865498672
83,0.43919670249828663,0.29327778430066975,0.699014513956988,0.632622965724753,0.4266948336184618,0.5244588620098061,0.6255286933833003,0.52062008439238,0.05273047155604249,0.1901329726276265
84,0.4965678259804551,0.24340384919921043,0.7681711019554283,0.5761701255531173,0.4710635463994096,0.5346979105524062,0.5569979596613164,0.5338374378462872,0.1517307725811924,0.1585347226565506
85,0.5429963000084664,0.20135584642674567,0.8237685446619027,0.5155143741332131,0.5100667005546312,0.5067734284555455,0.48764367617486887,0.5449074899448657,0.0562024852031551,0.12573808305217749
86,0.5877322552535383,0.16410970488585996,0.8768812000054584,0.4482028142825774,0.5527553399339299,0.4566061895996736,0.41885317806454975,0.5534460434184559,0.13664132874353532,0.04354229189476459
87,0.6162252074428877,0.14577574621296283,0.909554027481699,0.3792727623893215,0.5761086722603936,0.42141126879145246,0.3546232001438839,0.5593152678365798,0.1033336470839925,0.12500970224346852
88,0.6450165660441143,0.13441277069147284,0.9426016126188929,0.31023992062269246,0.6116570761637291,0.4024779077119764,0.2994629846561944,0.5628473155399392,0.1166086240437246,0.16515700701205516
89,0.6715375767580327,0.12657291130167406,0.9729772919316064,0.2450812271917491,0.6372993901821741,0.37495473443570027,0.2488364904302839,0.5647629523839157,0.31578892410031406,0.1333254931137172
90,0.6848147988156372,0.12552734732061793,0.9888926023415783,0.1835848518067434,0.6521887115456331,0.30322378324626276,0.2060216073762869,0.5654634022220304,0.08178078046261104,0.09581164319693285
91,0.6892890814601036,0.13045238621993804,0.996108987240358,0.12770301640160203,0.6578625804676183,0.27783959866394903,0.17250282657685753,0.5655656006905447,0.27672946140466587,0.08670861085408857
92,0.6930173377699113,0.13537313233169615,0.998907605937693,0.11134290692038903,0.6630315373132838,0.20828135847434814,0.1443307766595196,0.5648706057976344,0.03038057519643705,0.13009644488395702
93,0.7079771966869164,0.13829689250338967,0.9858469803318132,0.10795104494314002,0.6606369777354797,0.1767698159556274,0.11614295552213348,0.5633602437629269,0.006329206948094124,0.14122884492879034
94,0.7344301300131308,0.13610997579543468,0.9615930949915374,0.10955752819258377,0.6706754445115546,0.1676607579994224,0.08409568460895211,0.5612956824561378,0.01698453763210591,0.1627695306099909
95,0.7569633704778592,0.13541051838604304,0.9393992485211973,0.11426708073868602,0.6911487827226614,0.17418900982576094,0.05154165145761447,0.5590471380439417,0.21598197871640923,0.15248762855689776
96,0.7658305011688968,0.1353551041678635,0.9270147142026786,0.11874030426265779,0.718477325442173,0.11986932379447438,0.028778809203626673,0.5570242950862049,0.20214316052324863,0.044137213588233706
97,0.7733474433247771,0.12895486248843055,0.91545485503339,0.12544173654764856,0.7399556551996916,0.08973017674473881,0.016038234413904773,0.5554668397999831,0.011550443716398283,0.06822085259871545
98,0.7817744886553577,0.1226854301153832,0.9072324046399906,0.13270452356730592,0.7398794532604337,0.11224240728458641,0.009544432195696338,0.5545268091072281,0.11985627918204506,0.0633166203096526
99,0.7843773913850656,0.12038353963179563,0.9054861971044704,0.13568742281903404,0.7350495356272095,0.1788488754505398,0.012376441319174853,0.5544723458678916,0.07848775985389403,0.178173871507592
100,0.7736425946315775,0.11761073155600885,0.9139419380473468,0.1810646541702806,0.7320722537745159,0.2010320277816218,0.027088397711085708,0.5559477918046534,0.01244337476693148,0.19108281597840984
