Frame,Center of Mass distance,Symmetry,Grounding,Arm fold,Leg fold,Kinetic Energy,Potential energy,Bone length coherence,Torque,Center velocity
1,0.550990897425499,0.7506462576666012,0.07405399805046488,0.9935126389929245,0.09086276545531737,0.11528589407572393,0.10102524108066795,0.8282186736342334,0.02393884383171751,0.17044603734924865
2,0.5678628191883528,0.7479061425271384,0.0643352793020485,0.9865933939613106,0.09782135930935322,0.11528589407572393,0.10102524108066795,0.8334140093421893,0.02393884383171751,0.17044603734924865
3,0.5808034472973225,0.7457773294377386,0.056609205949496796,0.9806349951328398,0.10179415419172315,0.11168489450235711,0.09033696711581436,0.8403168666056209,0.20673709898517398,0.19251247323613827
4,0.599516091864923,0.7394923435050267,0.044121632020043954,0.9755995507458899,0.10506908112572873,0.16504228358407017,0.07791621051265987,0.8495203842835565,0.19722606135868426,0.2760919746020576
5,0.6193874995152082,0.7321955878069137,0.037233038748955956,0.9718638446984503,0.11718516713949823,0.12859342512823577,0.06631603136399133,0.8581605451880453,0.13307233450496006,0.22318966436819335
6,0.6471176438434753,0.7232110773389178,0.026432850927967343,0.9723953730317575,0.13202973229150264,0.16420378728994645,0.05607720900721999,0.8652166255671903,0.06427926831152381,0.25493077906335637
7,0.6749485444130489,0.7169726987390269,0.01537456511719159,0.9672095974426991,0.14607927657161104,0.15082449717627727,0.042839966602256974,0.8716671621834893,0.12625063301751915,0.21211375416558695
8,0.7066392669112206,0.7088197724839207,0.0015908433154755116,0.9605827572727104,0.15804908667856785,0.18654942243875294,0.026727545099064078,0.8790273150375685,0.424476280100444,0.25298595476216673
9,0.7169435614569412,0.7066280948107894,0.0005386844343206919,0.9527171969493498,0.16615124695513728,0.07117875584626829,0.01841233835340722,0.8871505448456622,0.00871617918349916,0.12173300494287445
10,0.7314409503209846,0.6990671298848533,0.0,0.9501360049364982,0.1792530835687261,0.08068513998361947,0.019636887864449837,0.8958545354821366,0.0538900968858122,0.1299411210863008
11,0.7458329018049952,0.6910397710167374,0.00043003798256709944,0.9520976668521184,0.1925386451983856,0.06408343749504594,0.018466249362618512,0.9037629787587386,0.08148364882818467,0.0703738350849398
12,0.757867268697573,0.6849769160121534,8.57999005938138e-05,0.9574795682544366,0.20519860612442584,0.043829195843468,0.015660972313660784,0.9106617801358011,0.012990314771341363,0.03551222406720519
13,0.7635498731545239,0.6811473517801757,0.0015157863072766016,0.9651174545156337,0.21392354141176448,0.028653029908752715,0.014043569294318341,0.9163551760776496,0.040585536180718564,0.03090690382427537
14,0.7678391712276242,0.6785078324431084,0.0027528661761886987,0.9716448419815935,0.2208252072298721,0.02240414775226054,0.014200840710288161,0.9213699541772113,0.004789572278868533,0.021699532715354006
15,0.769765291584106,0.6769521675132925,0.003831380953352204,0.9762517724071366,0.22532698164447484,0.019656304740585967,0.015207336208201081,0.9261094930848828,0.04202405022167532,0.021934275798973515
16,0.7695481600066529,0.6770114685222127,0.004099237070398047,0.980761449321141,0.22604003359660507,0.006334058566284567,0.016085552225981698,0.9302934800330145,0.007036964751102078,0.0077317177667169
17,0.7676741729435667,0.6762009539265181,0.004251356426709496,0.987101827119048,0.22449558323677618,0.010261524091649932,0.016177321325849054,0.9339793137237812,0.005535041154215537,0.018559038934075994
18,0.7656168266839223,0.6753276528336114,0.003542468767212585,0.9925175597643578,0.2208086481119531,0.01602855047090411,0.015602432760665823,0.9373913186568512,0.00561340921920439,0.028178213746284732
19,0.7632091587199045,0.6741023741035352,0.003673317196582187,0.9968921086279872,0.21791814555209638,0.021911257345632065,0.015392953256901964,0.9407840186092777,0.004781537566687771,0.040658651502494675
20,0.763459287674501,0.6720931236275173,0.0025353226051923377,0.9999999419551293,0.2155663786376633,0.023822448183141096,0.015283705948515799,0.9441919353869469,0.052870687592865846,0.04537851159786352
21,0.765342006038211,0.6712377901019996,0.0008056811199749157,0.999728780746873,0.211613711239956,0.04169997892763289,0.013194645466241137,0.9478555817316916,0.07446290361184799,0.07641397773045751
22,0.7610463407443914,0.6714829920742801,0.0009760633933577682,0.9960835984586647,0.2072288663310674,0.02227291195089688,0.012950309825985688,0.9517030268434825,0.03987818330056504,0.036007005200449596
23,0.7613954419023728,0.6707522062412082,0.0038622488641668344,0.992733757920841,0.2028572335989951,0.04156439102767071,0.013241728574902707,0.9559822770303198,0.058578328415679844,0.08159113773514003
24,0.761296159395086,0.6706565532310564,0.005379002031759035,0.9931756640966161,0.20029320954122246,0.025464693861716743,0.011905622833971842,0.9604033721793924,0.02592437146781652,0.05446062753977728
25,0.7581275778488039,0.6699244752296942,0.0037737990501157323,0.9945482329484383,0.1997173293914959,0.015389423969337871,0.013140034485175093,0.9647686316503868,0.03673477548254772,0.004408042492286491
26,0.7592561572603274,0.6688170906690869,0.00396040309101481,0.9944890718885095,0.20038731609784918,0.008520175935981556,0.014609239562430355,0.9690803440856676,0.02492873161191488,0.019395356299059554
27,0.7625523521692704,0.6682147710326307,0.005365036271645727,0.9937679303492464,0.2013519883833716,0.020324350786013762,0.01403727983650393,0.9733580773148223,0.049688787054866373,0.03649920849651327
28,0.7640918942568254,0.6683413427020946,0.005265342230221147,0.9933911916015012,0.2032868380481924,0.007669165717120094,0.013587378284379087,0.9772991689355284,0.05999259932693344,0.014526643417463122
29,0.769242880540526,0.6663186312451186,0.007253099610046322,0.9947564001784529,0.20453913070082522,0.03014683426275392,0.011669948325601075,0.9810168214348346,0.0759565014076795,0.0403093773409784
30,0.7709894471762311,0.6666585374955086,0.007164112651375319,0.9943893236476088,0.2064990043039503,0.007109937747517887,0.009502310089758059,0.9843332007315518,0.012499055388790615,0.013807384264797402
31,0.7711416772809804,0.6679683559074889,0.006462100443011138,0.99210598553405,0.20836081002145188,0.014000968001667603,0.010319748994887556,0.9873654949060954,0.03462271814417907,0.025047863734447718
32,0.7731960942233549,0.6680669792149612,0.00606164122417124,0.9904030524808477,0.2110419426079355,0.005660504481725334,0.011406516272731962,0.9901521241725117,0.010744749198697905,0.004821054316456367
33,0.7744327917289661,0.6673813441485276,0.005649472252620839,0.9897636981374605,0.21269521501267857,0.011850710932603392,0.01116251811881763,0.9925472532932378,0.0044210451294414135,0.024687336649749286
34,0.7757635355830984,0.6675678411036696,0.005347955072737882,0.9888322505349548,0.21447860323101622,0.011678496984482601,0.010504821467369075,0.9945540225316978,0.008158421441917328,0.022571408423612913
35,0.775155767790131,0.6678232090089433,0.004411425523393254,0.987335808952509,0.2153028187241047,0.01115027560105212,0.010677565260725256,0.9962371704637887,0.02211866308467164,0.01897471700318197
36,0.7745764199811258,0.6685760167252526,0.004442830578827674,0.9873133159508299,0.21469907748778508,0.0077598135475111215,0.01118050859262027,0.9976159081943835,0.005364921396302815,0.012567756058125865
37,0.7748420858691157,0.6692203962897387,0.004331390975051375,0.9857033870800047,0.2150932832045211,0.012590957514853455,0.010839110934351692,0.9986447765980254,0.010701812757517873,0.024593584658618824
38,0.7754171335053844,0.6691230765769289,0.004234812372421442,0.9858590533407335,0.21579078237399485,0.009719361441848644,0.009878559092769829,0.9994560071393719,0.017157605422279485,0.019002199238243644
39,0.7765795734503309,0.6702112532339816,0.004419160405917603,0.985803581800548,0.21688381613912208,0.018679605070912857,0.009101227118254701,0.9998738472797949,0.015275093264454552,0.027850049066123702
40,0.7754506264505001,0.670779088718312,0.002903875433619353,0.9820469686431024,0.2183176039979194,0.024791272618209313,0.009295505236113997,0.999998760243754,0.01948704231746362,0.0457788693539123
41,0.7751127457201599,0.6721783807405223,0.0015527060474736691,0.9752225497266955,0.22052534625142656,0.035671581217992125,0.009855774671998512,0.9997110836541855,0.018801045528713207,0.06517187322466222
42,0.77380841034929,0.6729204147378531,0.00035383506584606795,0.959446272807134,0.22283006667696797,0.04084276873605684,0.010548732126415482,0.9991285376433979,0.027363603692588424,0.06685703604356805
43,0.7715093482124321,0.6751331048845156,0.0013995124019226407,0.9336520308763852,0.22270547722022602,0.03416431795741572,0.011268993484073219,0.9984160580974448,0.006497035966218117,0.04941453095871329
44,0.7652409894724881,0.6771623043419736,0.0033988362958929015,0.89904816315984,0.21977896268093516,0.03691682341679812,0.013355321913069625,0.9977304853059689,0.03058467751052251,0.02497490967783842
45,0.759073524126386,0.6809274595441178,0.003906760248323054,0.8575732037755388,0.2140486414238913,0.0348122384248492,0.016637658186720434,0.9970722356626983,0.007584761276627907,0.029655024547616586
46,0.7516487858740415,0.686880383258973,0.0024199081312298847,0.8180647484549347,0.2034032570757369,0.04352544317744904,0.017993636714119268,0.9964100209259074,0.025812259889201664,0.03708561040688697
47,0.741750474347099,0.6931230415646424,0.0018284402856090561,0.7932729530680228,0.19129593392317013,0.04833619880973601,0.018602732572998142,0.9955815908485591,0.007484331041197494,0.03249316447436339
48,0.7311190575160309,0.700543358294292,0.0009840847530125086,0.7855855535858118,0.17801706876857015,0.05415714238093544,0.01950968410964467,0.9944142772665842,0.010934930321915047,0.059115505888289385
49,0.7203567540376764,0.7084456820125559,0.0003138356964957918,0.7987367921044549,0.16494523566913807,0.06192085920468056,0.01987703473458713,0.9928035484211257,0.07462294886538391,0.07587717155651494
50,0.7038022608916306,0.7176812645804945,0.0033805375691803932,0.8269610546994431,0.1516760437524389,0.09079058224468309,0.022491145282113174,0.9905731003749422,0.09371298489097821,0.1300628663212256
51,0.6842531355494783,0.7284829958395378,0.008396644695840257,0.8594965308060852,0.13759577425103817,0.12439436992824401,0.027611385640495076,0.9875779705735204,0.146461918939829,0.20547709599182595
52,0.6593245187137516,0.741424502855614,0.017594888212545293,0.900645946637538,0.12268193383859068,0.16854985131749578,0.03491661796772798,0.9836437979253815,0.16827475803385802,0.2855051635533963
53,0.6262225221380456,0.7579050884625248,0.032924064609368545,0.9370439519939308,0.10492920692580354,0.21480689687753426,0.04735995317000459,0.9787947784867473,0.2188364600638913,0.3442575359109359
54,0.5809664377450077,0.7814995028860505,0.05511551419091233,0.9628601766200717,0.07838859215413932,0.2879310800739872,0.06798833331883786,0.9729224683913497,0.18250261825382902,0.4559069814225522
55,0.5328118203054573,0.8046256460863075,0.0837317505692156,0.9678750005893872,0.05155005269797887,0.33029539459543905,0.0978348938458997,0.9661261517421854,0.3430581232490945,0.5144050146488592
56,0.4767467031192737,0.8264136832546402,0.12353044268955873,0.9498859197117554,0.02129629291040691,0.4112190982936339,0.1386707268868677,0.958400863292354,0.5212590449516956,0.6217073485041803
57,0.4145346418217203,0.8425038363881253,0.18113406447358785,0.9027752396662007,0.02559271030888938,0.5346749100139537,0.1975447005862807,0.9495185722981188,0.3250881858894667,0.7959160692719242
58,0.35465886961591503,0.8498704231835287,0.2506303904255237,0.8218306868847244,0.03163203832162644,0.6094674013169546,0.27549091109250046,0.9392856810291322,0.09103035619988907,0.9018255387857568
59,0.30333470858836004,0.8542330547472383,0.31694084001847467,0.7117143149262006,0.03198123169533997,0.5813554248016175,0.36032595962089603,0.9278417532318352,0.6032425989148559,0.8496101420809395
60,0.2694507472971377,0.8664936075146842,0.3451829462167158,0.5835697174573329,0.01381450117334658,0.409834667755203,0.4245517165079674,0.9160111117366472,0.043037253321343824,0.640011121647576
61,0.24948569388053385,0.8913701995399512,0.3308952037134732,0.46135894042101205,0.0,0.3408375812764861,0.4462564243718251,0.9045962097342215,0.015799419818796328,0.4958688216693251
62,0.23398464611255645,0.921276368468353,0.29840261842473476,0.3645612932990934,0.021862041645607292,0.33852545562136116,0.4324782532327003,0.8941899227318211,0.16864888520617885,0.4419832736538928
63,0.21745623139345396,0.9518678626689605,0.26737180955175766,0.30940955917283497,0.053167300128357055,0.3094969121470767,0.4053759769395404,0.8847942118347886,0.9999999999372595,0.4068732865263962
64,0.19391079901108862,0.9767038037482796,0.26388830135897234,0.32186861429288066,0.08956952766417352,0.1593140147636824,0.3905560960376503,0.8755731076951135,0.17510039061639127,0.19979803161517967
65,0.1615318748503226,0.9937874625131116,0.2954606683899858,0.3992188966013424,0.12493343009022943,0.25704337797803134,0.40611130651492616,0.865605423552726,0.9110545981194585,0.28487681419762384
66,0.12897008290297501,0.9999999958726773,0.3601689319635742,0.5342757448165849,0.1592201198419876,0.43468402492358127,0.4526119555884429,0.8542987951396912,0.6977257029515207,0.46906612228500816
67,0.10715599629032507,0.9878645425147707,0.44731854717683717,0.6827135253399738,0.19034235183259646,0.569248850307888,0.523448191829826,0.8413521571123104,0.1834994851650478,0.6032850272082153
68,0.09793717264514569,0.9655074865717852,0.5260547498297136,0.7943054091684287,0.22151096675860735,0.5292176074324724,0.6033834001684764,0.8269848157940881,0.7820313791453488,0.5479598270161009
69,0.0936945299405912,0.9506057547915487,0.5698163718588868,0.8448018028633935,0.24367867754755854,0.3845944231190116,0.6665477208411392,0.8117952595326926,0.2609873884010973,0.43897015239319304
70,0.08661794635863446,0.952704987657315,0.5725714213041445,0.825529590818626,0.2524176286388439,0.3024652106249485,0.6986143977457437,0.7964670761913475,0.6446387709591682,0.4347049905371389
71,0.07311994947527091,0.9639143026081127,0.547527377933449,0.741818635096259,0.2575297796350374,0.37676760984769214,0.7035833394424991,0.7813259173497964,0.62494692178955,0.5000733782668657
72,0.05852491801676052,0.9731671478693829,0.5010265857968391,0.6221283129908911,0.2579065308183494,0.4767974387913171,0.6895318313749741,0.7664371384777389,0.25605741468465165,0.5896094446946564
73,0.050954973088127804,0.9674229421077859,0.44938697920234266,0.4893277133765334,0.2527137407634966,0.5280810948482713,0.6656757297937684,0.7515819456139875,0.3856238904019206,0.6329953435243748
74,0.044074725183978564,0.9487939567135909,0.40774921580912477,0.36153086005021856,0.26066320817679356,0.47852871229074373,0.6433460268498236,0.7365820690075693,0.25099400704853814,0.5530133970820214
75,0.04248854124856135,0.927632802371235,0.36977345376583304,0.24731786309811704,0.2666272132974771,0.417042788269984,0.6223599014074283,0.7215112418454164,0.05164680354350859,0.4390757440610617
76,0.04652024146297544,0.9074889663540983,0.3222389480705002,0.1464863332633932,0.2684399224567945,0.39800323196034165,0.5958671185177357,0.7063885244638898,0.3584924369889667,0.4011625854154427
77,0.05122638753537415,0.8887492457753122,0.27912783727117063,0.0704850520296706,0.2739604796360919,0.3323006778334067,0.5667420283365435,0.6911911417180532,0.45369001296533945,0.31709131601630197
78,0.05519510826063183,0.8726171685183448,0.24594993601933157,0.022734830945383463,0.2829653755044972,0.2505715181788716,0.5412183954252974,0.6759718461418373,0.23288399678784832,0.21705065595500714
79,0.05836625915825712,0.8556109455470126,0.22393763312088294,0.0,0.29324344284386206,0.21163192298207048,0.5224840612191164,0.6607586771140698,0.1478890055928266,0.18380091893465633
80,0.059554068498317875,0.8337979869906377,0.2189849090593528,0.0005474249191277411,0.3033513906216355,0.20709794637703965,0.513816199894257,0.6454777963608843,0.06597166697036153,0.1492186242216899
81,0.059772159408106956,0.8069223739377857,0.230280764983031,0.03023912117062994,0.30947936905224455,0.24772229680653132,0.5156960580560348,0.6300564233039311,0.035317980719057854,0.16629882459774195
82,0.05817831476691468,0.7774145616236757,0.2509668667677417,0.08530040316559488,0.3171705120467286,0.27697666029243984,0.5243297540476995,0.6145326514376892,0.20075344480133991,0.18589414360535145
83,0.052297311828054756,0.7509659161119981,0.2690660263493029,0.1581017565984349,0.3320601023680719,0.24554163820952934,0.5345400971756373,0.5990364054823184,0.26224049292585044,0.17187391022911438
84,0.04021192860262702,0.7339874049185815,0.2820801183874393,0.22630364526168695,0.3557142686858112,0.18189860093489246,0.543212169702577,0.5837307497286087,0.07181811183183193,0.12919339238591174
85,0.024686546045760916,0.723340551194806,0.2923548176269323,0.27644751068538786,0.3897051163097924,0.16691763810023227,0.5497743664644578,0.5686944137818029,0.10589999867811678,0.12737108571278535
86,0.011453526105324768,0.7081623078121467,0.30453755303227004,0.3044142454593114,0.42854357436908125,0.19681632961662257,0.5552077071417206,0.5538513736205812,0.23758043698046022,0.14920450139520391
87,0.002252176495164237,0.6814431739813117,0.31424961118740163,0.30314853526696267,0.4699371864932182,0.2493702391226939,0.5605534480359519,0.5391072457234732,0.304084768133102,0.155418616995128
88,0.0,0.6445371116989473,0.30815104127062304,0.2806815378889659,0.5050286693692301,0.311947284032167,0.5606561816262026,0.5243559201623738,0.356898596406463,0.22773098652058488
89,0.0026272689221100054,0.6014767224725,0.2822477164612097,0.23685130312008454,0.5386416917042524,0.3800310976410887,0.5493147541602287,0.5095843674386026,0.2845272485408638,0.31765715816841167
90,0.009753398652685043,0.5547446522922374,0.2408904544646273,0.18258880303743566,0.5676274634699655,0.4341261183640058,0.5258439553417105,0.4947945326355044,0.13314014308176442,0.3997333458125445
91,0.020329537175648223,0.5051440183020982,0.1922752137943694,0.12866194189051103,0.5961494141579655,0.4646286267196482,0.49388805780823336,0.47999895668518816,0.16501525848335807,0.44065729789211533
92,0.032143803082577936,0.4536302049911993,0.8555551053470455,0.08178556307324737,0.6301917007568147,0.4405206019873041,0.4596736172433142,0.4651679268317628,0.30907408201752573,0.36029552893311567
93,0.04350364639454449,0.4063923153376753,0.898617327033568,0.0552194134450842,0.6639061843107167,0.3771296938278427,0.4267781811342249,0.4503282226975796,0.021724884044606343,0.21622834452498685
94,0.05822660242385403,0.36957748516593747,0.9463138176413951,0.03412119372184858,0.690678555662252,0.3409265648270465,0.39447897864713616,0.43561894779648497,0.21724774058409865,0.25278742211653527
95,0.07152244612091836,0.33994348435920374,0.9860971653304342,0.015360812285176367,0.7130799302982458,0.26797187184289767,0.3652207127265015,0.42107056224533046,0.04933645140489072,0.1935318483070412
96,0.08553139290929951,0.31329160300008546,0.980251617386786,0.005229986198251298,0.7295587210057954,0.2455238950657907,0.3393671655875187,0.40664124841083926,0.2064449687994523,0.12405925218668397
97,0.0927319972384595,0.28777472785089825,0.9644938712026896,0.008121095122202814,0.7438507240568366,0.1974181938187117,0.3198470665830022,0.39231933857684215,0.09532290356457025,0.07386584506932257
98,0.10246909704363015,0.25750130388461245,0.9446287949692578,0.027108355700381573,0.7610699378787661,0.2307344572449657,0.3040598673414288,0.3781515704497154,0.0833525570285674,0.10965177017341726
99,0.10981433201432093,0.22734158177733169,0.9307317535575962,0.0800163882557903,0.7708229193847764,0.2524573845930618,0.28709509671631855,0.3641242353514146,0.2597306023933906,0.19404314817997514
