Frame,Center of Mass distance,Symmetry,Grounding,Arm fold,Leg fold,Kinetic Energy,Potential energy,Bone length coherence,Torque,Center velocity
1,0.45803738641123687,0.7128555099029155,0.0,0.18596042081349706,0.0074033683209461,0.05305000003580366,0.24215926887371692,0.9999990467610524,0.005013609188059254,0.10939276465970463
2,0.45398356653963906,0.7124228346907007,0.0023751485291940416,0.17501322168875322,0.006492880171692869,0.05305000003580366,0.24215926887371692,0.9886354884287711,0.005013609188059254,0.10939276465970463
3,0.45047668951361464,0.7123562896659708,0.004611626154504475,0.16722949808463278,0.006194252973868361,0.049539334514091836,0.24672848205392997,0.9779795574471495,0.003851854258520421,0.10148053270203765
4,0.4456022866718965,0.7134428757850539,0.007178368101962596,0.16077896908751171,0.004791520121759499,0.05322386197807336,0.25157231772909205,0.9679762313120184,0.0191496196940778,0.10368513449035792
5,0.43911701723877705,0.7162138744662806,0.010126332245043853,0.15543348635717644,0.002123944877607213,0.06547952466421078,0.25767908865514266,0.9573709523472074,0.00011378260182943629,0.12154335920031739
6,0.4313304163517879,0.7201996994731295,0.013421393180527244,0.1509182122221267,0.0,0.06531785610799502,0.26474257867143614,0.9467847380466118,0.02606721398541437,0.11182230653182061
7,0.42257478292457623,0.7269730657644701,0.016993673133721174,0.14821783084010914,0.002268157458257667,0.08635032829164203,0.27303595714814255,0.9351071674440001,0.0027238106652768047,0.15110025556031526
8,0.4131203821370978,0.7349242583035375,0.021524349943433586,0.1480719794238695,0.006127067475164309,0.08885344495294815,0.282679135006054,0.9226904189846284,0.027551080122036792,0.14045698152630864
9,0.402795184996588,0.7467265134205516,0.026390212910060995,0.15178532588161361,0.010203347516257403,0.10764207590405075,0.29346405871308495,0.9089861756562573,0.0003624458938986158,0.16943823953848328
10,0.3927214939858319,0.7629901861756275,0.03102583428811973,0.161455959064714,0.014076292476258034,0.11474921410514727,0.30515491036520276,0.8940155176904089,0.11461419706739105,0.17290997464024074
11,0.38044434938382843,0.7857109681469507,0.03748938007577478,0.17900362158296498,0.018369680955617262,0.15745918844986515,0.319437884416808,0.8772520866934126,0.05290629129627076,0.23669860169601215
12,0.36810417291575,0.8147141567131158,0.0445794825920749,0.20749690624280545,0.023231130872810958,0.18697828892687987,0.33750947597600633,0.8583079107378991,0.10020831784827956,0.27308276111688196
13,0.35544468604838836,0.8483864540901478,0.05315663408843528,0.24873829084272533,0.027297162007040524,0.23747230524815016,0.36026338675618963,0.83652112337947,0.1814020030274199,0.3405178761823306
14,0.3411451878715134,0.8840586900208909,0.0637101529402775,0.3020968701300264,0.031904776076298165,0.311020469196951,0.3913530400476214,0.8112358240524734,0.07677890880899663,0.4517208854369978
15,0.3266286399391031,0.9175732103620856,0.07472656984036954,0.37075160817364267,0.0361628769943572,0.35377085419486026,0.4300050631195772,0.782074404441484,0.15518277542163053,0.5006747203889795
16,0.30993903280748397,0.9459342356937369,0.08579522879327864,0.45016474264405754,0.03328588275272714,0.4343768500690353,0.47576891292296164,0.7489504733059461,0.11232091706821865,0.6322538220957822
17,0.2905760651185895,0.954369768667198,0.10059582547043361,0.5410311099756702,0.023869189908522884,0.4853818575239005,0.5280077852970932,0.712224373448972,0.17019530126177482,0.680822203237977
18,0.2756505619573643,0.9515837464857623,0.10445116720152961,0.6337099123290236,0.025220719810343007,0.5345096838941236,0.5757706862276729,0.6725581904326378,0.1489990559104149,0.7846227379648109
19,0.2623081528075162,0.9289528945337653,0.10365877226898562,0.7206231196789992,0.02790860698425611,0.5522454556167732,0.6128283264775535,0.631368918987412,0.0113434689567165,0.8147174988455733
20,0.24671158943063695,0.8840298192575227,0.10889601887795365,0.7997663255280596,0.02796288144151747,0.573299511267256,0.6494428867338596,0.5897126124213481,0.17779889240133573,0.8557925440100932
21,0.24344725493198435,0.8421010669795121,0.1124387729387954,0.8701232573887872,0.02807406149441152,0.520249822579409,0.685488527124932,0.5487150890273406,0.2768495877111631,0.7748039087663982
22,0.23727444843615295,0.8299844773293678,0.11315276130396883,0.9300509458442161,0.01688282528453274,0.44267026655229663,0.7090766371443813,0.5093808140092247,0.3457908905460756,0.6619157409410155
23,0.22305375694065696,0.8528744485054671,0.11050130956623615,0.9730567980226014,0.006057409858198421,0.3337793783502805,0.7141562232397874,0.47272193644391136,0.22217513524135535,0.4523567913739299
24,0.20491656441949838,0.8872205150672786,0.10537362750149278,0.9942167010901519,0.03874811074840612,0.2507479471997335,0.7012757755123401,0.43952888513976046,0.13296745573997218,0.25584461480421794
25,0.17656155783467944,0.9138395550777612,0.10295820383374456,0.9987860703126649,0.08760505009280123,0.20891561238402423,0.6797868895797847,0.4102629675687023,0.06991117765920694,0.1706648625710655
26,0.14515721075733856,0.9344364569238359,0.10227481065766593,0.9999999759700571,0.13976937696737268,0.19815515761043065,0.6573741343880569,0.3850203989342954,0.1102063289341831,0.2168708828302143
27,0.1117675466680122,0.9567206152425439,0.1036667792039242,0.9995532668035285,0.1969608631675437,0.19537793109801357,0.6363392716350271,0.36363226771120577,0.13500798517338214,0.24955936154639718
28,0.08062948080793117,0.9812187679047674,0.10820020855740477,0.9922216725370511,0.253031875044865,0.2202707155743979,0.6186444727311462,0.3457928893624577,0.1398874323453552,0.2353023600896374
29,0.05387004134858821,0.9917601373625875,0.11291635463130992,0.9756832209511566,0.30511739323252995,0.23280854922061808,0.6044894079812123,0.33099417910939233,0.027917189173353684,0.20656503003748355
30,0.030318950130267818,0.9978218098987055,0.11966694264120095,0.9595574738786499,0.3537863715665013,0.23306337924325207,0.5946539514476453,0.31888895799227884,0.1653519535016928,0.19660579107916526
31,0.01367383376179171,0.9999999955386885,0.13269916808619464,0.9454933309166211,0.3953042166759945,0.20689619949465532,0.5932206220459112,0.30925630936236664,0.07791536004832564,0.17806545856823455
32,0.006263901286633608,0.9961944218053067,0.1539640345007132,0.9299822667414378,0.4288945655034613,0.23203356995092894,0.6036302414355363,0.3019015648957728,0.034144131158224074,0.19105828637906103
33,0.007286024387514065,0.9864891730886044,0.1792951089872206,0.9041570086222739,0.4536683197114858,0.23375553145644995,0.6235427722245205,0.29635616024417916,0.11010414791677735,0.1555128714473271
34,0.0012488319758138474,0.9961602274405157,0.19048513823666807,0.8612526727552787,0.4759297626781954,0.20584373673212417,0.6396506346731845,0.2926048005524354,0.07007150543074028,0.22912879921813573
35,0.0,0.9971227185507943,0.20317324710625775,0.7975048419120478,0.48491366843404354,0.23445300675477118,0.649461851282454,0.2907883714830638,0.0790119642006168,0.27037780695085106
36,0.007174891392374764,0.9863738346739827,0.21726781119065436,0.7139899592910588,0.4676255945092798,0.2602857002048422,0.6598097586673556,0.29086827356779543,0.19807464167784175,0.2874577741185386
37,0.023417990857711162,0.9550976173437962,0.2372858596964083,0.624363744521193,0.4329620797799905,0.2970818155003013,0.6751403515499504,0.29201147804307637,0.12385898916569833,0.2804910157690036
38,0.04232917963443018,0.9253355977972524,0.2535515770960215,0.5404001594252467,0.3822737363629292,0.28158004138259163,0.6968953416271073,0.29344378971230967,0.05555043157301802,0.24326459394718178
39,0.059466863670388434,0.9019548127591678,0.25922141819052924,0.46666760637983956,0.32541187613197636,0.28997232375856175,0.7160807002428616,0.29483228845414566,0.01562277414489719,0.19756361107986045
40,0.07400920855479945,0.887638193718874,0.2506252214447699,0.40519647175093737,0.27000338441859567,0.2833717852639081,0.7254459132212073,0.2958440540015958,0.11506054114476016,0.16685473837606074
41,0.08311937632726929,0.8832357462779425,0.22847788335871036,0.3594375442079997,0.2264547124200593,0.2944978758980841,0.7212744613727601,0.29635342246476154,0.05713959096467398,0.16478167655436043
42,0.08798700303423757,0.8849597796841704,0.19963319954291284,0.3255329946817348,0.19997334773520054,0.2990995004358004,0.7038722918721212,0.2966701084448605,0.05125109163829225,0.16026361215175602
43,0.09030356424336167,0.88436116165809,0.17354567947104774,0.302894297180452,0.1904887037623683,0.2606061980363325,0.6818432482921859,0.29666493261325855,0.11281360055390358,0.16252714348554168
44,0.08796649677095458,0.8760577290095591,0.16133584042991453,0.2932763254506892,0.20330181093460484,0.23052987701556327,0.669293458593054,0.295976466981029,0.08465276933800005,0.1594610072760833
45,0.07953352277822151,0.8594897574627656,0.15971496563695273,0.2952950730702258,0.23357949947438536,0.2738312465778845,0.6717358947782919,0.2940436313397218,0.07163249731497973,0.17732227406296272
46,0.06052265493245466,0.8444472297254478,0.16643288637554446,0.30844591227938484,0.28679566438995246,0.274142270061117,0.6836124538248443,0.2906987415126465,0.07800861091059377,0.12141722428686741
47,0.03308585573358751,0.8362856532532248,0.17774689009398023,0.3294049925181331,0.36197190921459865,0.3087485293317929,0.6984637177656804,0.28607608370320936,0.03637516742596092,0.20804870601554812
48,0.017191420485700205,0.827927719251252,0.19071439494665812,0.3492781694654573,0.4191176379118804,0.35200753134598217,0.7126205274369998,0.28013459756144743,0.18233149141425312,0.3499780365264166
49,0.017087645781553727,0.8150240550968596,0.1940546733204725,0.36417386141415453,0.43665060671057304,0.39971797523766145,0.7203245863933789,0.2727164309842692,0.4246108758083842,0.48969996632160356
50,0.023840814032684777,0.7931306958264213,0.1874943178057186,0.3767630394290934,0.4478885229695457,0.48668432797665767,0.7158565400335624,0.264144237672092,0.6106932147114666,0.5934532647486079
51,0.03689388468802764,0.7501733199094904,0.17312846955634553,0.39263234424701254,0.4612683603696565,0.6403909171301835,0.6938000944177425,0.25482724747350677,0.4367435097735727,0.6815712249045638
52,0.049924897835314314,0.6858655797432726,0.14303779922279145,0.41299284230345606,0.4869029641098815,0.7425366307838175,0.6428778726500238,0.24519974805963832,0.08878194632573921,0.6217923636268877
53,0.06283367899886176,0.6073721128821283,0.09366523747011936,0.41986396389993774,0.5221943128612764,0.7578493732365013,0.5619738970056236,0.23560532457510916,0.5760338787782624,0.43374685465893426
54,0.07812889864186824,0.5431025421575112,0.04391823767244964,0.3983739260045424,0.5608227796368754,0.611065984895642,0.47639649353796093,0.2263369651604875,0.43967267626996803,0.3546677887994182
55,0.09338796613317049,0.49769621797611685,0.9999999899994559,0.3458424538223298,0.6009411101605032,0.4805069456070506,0.41112606320091244,0.21754298783808615,0.30086471400709575,0.3914131346749629
56,0.10493984572621547,0.46984911968723414,0.03470735646163983,0.2816236013642089,0.6447005025184569,0.3800387220156464,0.36763430843349015,0.20927724129481035,0.1515619106094963,0.34925992248323157
57,0.11927284778964516,0.4534480115517061,0.07161355539625217,0.22793909727722095,0.6839990711034076,0.4026007075784759,0.3354074711407552,0.20144551989890966,0.242152999797135,0.3818685870000682
58,0.13770523414837976,0.4480977389142161,0.10910148245635756,0.19262639593959502,0.7188164392534595,0.46441976364563126,0.30560550559338956,0.19402492263619497,0.38956306419772696,0.3837466090264326
59,0.16606412601405715,0.44866414119239023,0.14774590766424375,0.16928167758836996,0.7395920075436225,0.5831974447688988,0.2751501134399095,0.18691733328736784,0.054459917054613775,0.4278330237129149
60,0.21337170368588468,0.4306854185463191,0.1903924291858336,0.15454754178960292,0.7561927171796721,0.6115992887914098,0.2431563645991114,0.17980427833246623,0.4614264357447658,0.5320030630943444
61,0.26012445822580454,0.38949078733621784,0.2259563793145927,0.15032351609261435,0.7858953697208181,0.49729629336808784,0.21541682894562933,0.17227332484005195,0.04614199938302074,0.4970548894854837
62,0.307601777731729,0.33709971775878156,0.2554287965970773,0.16064411311223087,0.8128954684909404,0.5359677553438981,0.1959887697210533,0.16399602394213592,0.1845006388390931,0.3943244280458015
63,0.3441247713101113,0.2875105891570243,0.7265090421264262,0.18827473815336862,0.8345296467506998,0.5619913658652985,0.18752257889053423,0.15492954418663515,0.2791988323526781,0.13431360138169468
64,0.3688077691603135,0.24073694567426898,0.7130006214933067,0.22765784193514374,0.8637701383242238,0.48056943280300485,0.1896087626472445,0.145325525298458,0.08015279561825313,0.21217638522966872
65,0.3955121935600459,0.20959336703122677,0.6957035341298072,0.26823692893741186,0.903596088603746,0.3812056896563407,0.19240997233678442,0.13553311898321657,0.5881661418603212,0.20450676623955955
66,0.42702333549936194,0.1925799974937443,0.676247613386767,0.3006445656681492,0.9533787920023307,0.540267486169861,0.18961522602494316,0.12588656066811105,0.4528830344887831,0.41331728965380776
67,0.4639831008766205,0.17936664964474267,0.6568383733302317,0.32509818659759104,0.9999999765323435,0.7329661367375747,0.179334312431597,0.11667776670510403,0.0030728944431421264,0.6633373358041904
68,0.5120468676713972,0.1593411637468751,0.6379044331176597,0.3378204368146389,0.9918658904574167,0.7915152539252791,0.16069416552753998,0.10807316248636746,0.449969339721773,0.7197040587580176
69,0.6210567356007096,0.0996391269005714,0.6107223982953185,0.34533785353333957,0.9513792019762709,0.9999999993688905,0.12817728489276603,0.10011328589668879,0.03320733890728637,0.921920144051738
70,0.7471811646783306,0.02607580399740499,0.5890747978326054,0.36432006604782885,0.9350441557307085,0.938196473199465,0.0822986592842149,0.0926617310128046,0.2045008826779329,0.8450294648836847
71,0.836960876484826,0.0,0.42110925620349055,0.36241756067132713,0.9289542926171558,0.9448900035920329,0.03785785452430157,0.08546790624281395,0.3724333685049351,0.7842167729788447
72,0.856113444067032,0.05188931346055836,0.42030416273259646,0.3331509886028998,0.9070765741481636,0.7446468097286679,0.012238275466423667,0.07837806191721587,0.5120348435593376,0.6838806663783475
73,0.8716904751798114,0.026061469731727748,0.4196367169151145,0.2309940703253777,0.894178856258404,0.4595401111236778,0.004392201679619945,0.07184793730131392,0.656625095895627,0.46742336595479433
74,0.9286581586606298,0.03817723138333216,0.42218632964968156,0.10388013016960354,0.8692230876048915,0.8110497565264303,0.0013077046322613167,0.06629027844518344,0.07574364235275355,0.4063212187709005
75,0.9999999983023531,0.044203173452388264,0.42344983933176084,0.013730737767611589,0.8523928400315359,0.749754334733692,0.0,0.06172559803559183,0.42665219573255864,0.2696559318804741
76,0.9781110459451058,0.05915784767514672,0.419082442599769,0.012897044678945811,0.855540654318442,0.5291057988879682,0.0036631874130816414,0.05789934615004062,0.0035906594941259415,0.09740904953143144
77,0.8953691490087523,0.07747992486964439,0.4078241088232295,0.011549493444761043,0.8450020759613608,0.5123872904136475,0.016884244539876605,0.05445627205252631,0.10698330104801843,0.2611320109474452
78,0.8077571894394829,0.0908178042241153,0.393790228608039,0.0,0.8440347830985195,0.5584010295189796,0.0386801309662228,0.051194357858125705,0.07761767988901731,0.5240505527749655
79,0.7151598008088069,0.1063530036373688,0.3782835635243594,0.011972855822146458,0.8643570198009041,0.5801660949764089,0.06521479857251636,0.047958323872962644,0.22224956839312723,0.6183312581819024
80,0.6179547909458735,0.14034973371640788,0.3578271903304261,0.044627824604203704,0.8977903361982059,0.6731588323449917,0.09499726821468434,0.044649303053297236,0.21322286269580354,0.7744045312406658
81,0.5160303634006822,0.1928362039981647,0.33205447838233826,0.09050987343140296,0.9359311558530103,0.781416945017986,0.12449653486868184,0.04107599066050345,0.13672491492940672,0.9713308131112042
82,0.4232618862582685,0.23335891710353215,0.30401635128560883,0.14810164218656938,0.9440634052054878,0.8681114159032145,0.14822100604173433,0.0371028362663298,0.45859115176631887,0.9999999972561975
83,0.3600606341923958,0.27136791450976727,0.72279822429191,0.20822870602975294,0.9019458906474584,0.7122258210806967,0.16510009102340925,0.03278729987130131,0.999999999952847,0.650764329790428
84,0.3296647831356677,0.3106292321708929,0.7433388109996392,0.24601822585109973,0.8406811408053371,0.34898191304191917,0.18569548298200314,0.028421351055861816,0.10706760009108998,0.14146057998532025
85,0.32722548281823854,0.3531667056245309,0.7467814962806307,0.2631080017160029,0.816264892924361,0.3316505568877615,0.2067229122937072,0.02422816101514719,0.036899960574188144,0.225744026878069
86,0.3329550537472402,0.38578970554907854,0.7459213110043568,0.2786079320061738,0.791320542274612,0.3313133378030666,0.22141226439353176,0.020287808044677003,0.021166951463083523,0.16189489403753687
87,0.32991668861296974,0.42008564977999324,0.752408964573118,0.29074912489836147,0.7583536540091556,0.372112398635761,0.24317467867606257,0.016545346248137718,0.04204796855862827,0.1055788774703742
88,0.3224472353501041,0.4514129596052008,0.7627740620831572,0.30163288850921116,0.7193423105572807,0.36984563010612825,0.2746709863789799,0.012996227540740262,0.04581925076455536,0.13523687685833935
89,0.3052431888232973,0.4902641333136842,0.7767024656397563,0.30616741449043305,0.6958023961756359,0.40878727867538756,0.3076186225945372,0.009741761151365519,0.06518592485929607,0.1198493206958977
90,0.27368129082416365,0.5354241939793594,0.7992511813975993,0.306919806325322,0.6808881441427079,0.4602802783065124,0.33934927944716275,0.006914560071487641,0.12018318696979198,0.2753540488389261
91,0.23445288205333534,0.5812039090025771,0.8285328647922158,0.3014846495229695,0.6716697600850994,0.4853299725511087,0.36768557476902214,0.004608514436572566,0.15926466131338346,0.39567881558030404
92,0.19598400931350232,0.6332623095977408,0.86365055492539,0.28189587756995577,0.6589864174423969,0.5340690942431074,0.3887301556549479,0.0028966046877315953,0.108134593759835,0.49831320088683356
93,0.16346422402390628,0.6911113980171913,0.9056887335767256,0.25525587835261254,0.628038770801391,0.5831860753588202,0.4060435527226715,0.0017644717665784165,0.004095330493911283,0.504128286212017
94,0.13792057048948683,0.7388630187188558,0.9458360886119882,0.242767045475575,0.6088975561223468,0.5691316403350202,0.4244679333553534,0.0010731741384101263,0.15239680634469088,0.5223979256746267
95,0.1224158169451374,0.7667222291580528,0.9844902449318573,0.26807436722845346,0.5873518515651829,0.5091530520303367,0.444115478971208,0.0006086082058552591,0.17323675242301798,0.5210014196474283
96,0.1156339511168126,0.7843435020227796,0.025057541728620097,0.31616886700947955,0.5555445375979549,0.4626318713689026,0.46880508767080636,0.0002833559895197716,0.3856958808391654,0.48276329301421333
97,0.11819185782959866,0.7965361948418256,0.05964649787821467,0.36241931225288465,0.5231991583085329,0.37151560310981774,0.5002088619066741,8.146239952784858e-05,0.4208067698049761,0.3713764709201073
98,0.12703786115421678,0.809328623981654,0.08549414245832293,0.3969169609639253,0.4911606156271671,0.278925255072907,0.5331724824028032,0.0,0.08898991903304919,0.2500366331553598
99,0.13778451390126736,0.8267896497036505,0.11117533488424913,0.41312895745404365,0.4577966120127256,0.28971928086159765,0.5712323930429619,0.00013795825212165971,0.1707345046719742,0.19912966633263368
100,0.14740018513693393,0.8440618623505443,0.13573218992471076,0.407194020187024,0.42727218188257216,0.3194558812435767,0.620049640681114,0.0005573584946921939,0.0868411195619286,0.14789168028921879
