Frame,Center of Mass distance,Symmetry,Grounding,Arm fold,Leg fold,Kinetic Energy,Potential energy,Bone length coherence,Torque,Center velocity
1,0.9999999983316852,0.433762927315771,0.0,0.9999999225195465,0.42546006691100513,0.15429774657132003,0.005682746596859757,0.9999993371601834,0.3185858995010982,0.7259500929938884
2,0.9249607617538379,0.4504128070536211,0.0015648976503595188,0.9622100165267576,0.3650341601572051,0.15429774657132003,0.005682746596859757,0.9521298179838811,0.3185858995010982,0.7259500929938884
3,0.8285472058708209,0.47014676911903336,0.017888344524203625,0.9282477249048658,0.3016724091751715,0.26269252161234546,0.0,0.9021695524904156,0.3682680362070373,0.8049329327581866
4,0.7205716409335002,0.5027103343940205,0.04975026161908936,0.8954448597236336,0.22466139918672248,0.4029906118962579,0.01167468967988889,0.849618023531521,0.3077721440754587,0.8999323904908023
5,0.6111223214841598,0.5527396836159851,0.09820236885264613,0.8587471450988681,0.17649398857569634,0.5278446310550295,0.04774491870422303,0.7953964447979255,0.5411972323395103,0.9999999970285939
6,0.5146183590428517,0.62205813220327,0.15299984047493062,0.8188213473734702,0.1678066399249901,0.38925809952492396,0.10887301135597481,0.742145162915064,0.5640969910552285,0.8710742398227104
7,0.43210360943652915,0.6991596346086933,0.21159995478794832,0.7735173504231778,0.12363454472207103,0.2564150642595838,0.1890707498885203,0.691518095243277,0.34581095194665895,0.741354215256071
8,0.3649208793131428,0.780951338008601,0.2639170099180761,0.7174732702060077,0.06004043666960978,0.1313077400223294,0.27667116043617335,0.6447422719733611,0.03433980474431938,0.6320963981440382
9,0.3115655381831695,0.8582455083710895,0.3065988909977061,0.6407812587486924,0.029275544460841515,0.08933053544980754,0.3591443087714647,0.602160883176896,0.0822544929640233,0.602651620662302
10,0.26901157306903745,0.9216590759426239,0.3413655261962884,0.5572261708450603,0.09719962995940278,0.09178682217074263,0.43379590178092586,0.5626180803194534,0.07985921011339668,0.6021723410342279
11,0.23330342103136215,0.9684201802857184,0.37784113085706933,0.4818349769825562,0.15888541257644562,0.15173470476906814,0.5072805911113472,0.5246771094520941,0.17996972128179306,0.6278974762676028
12,0.2054778494642724,0.9942010095652913,0.41881739974556226,0.42528123412113333,0.2142791412488135,0.2309446811366395,0.5863069706115095,0.48718249150902454,0.4941038714644121,0.6581329073925809
13,0.18505946687975772,0.9999999951277886,0.46395636877180246,0.39172342848077824,0.2691965920480823,0.3726726701793722,0.670150288770821,0.44959180693828743,0.5942321389907745,0.7024733700613356
14,0.16887673913058082,0.9861634853834362,0.5054151618924355,0.3779577442513823,0.330564678488169,0.5452356975005347,0.7515414182155223,0.41179102859520644,0.5861791079064694,0.7585315957960456
15,0.1487137691755445,0.9584352242374571,0.5274356356390738,0.37844699674055793,0.40415176803524094,0.6861837509995535,0.8122766277105865,0.37425111392674043,0.5658976169172628,0.784881826188376
16,0.11765775703215492,0.9190184462243521,0.5173324795465954,0.37865913951316194,0.48671729899543814,0.7525003323684251,0.8336600864778785,0.33753569304794684,0.5390005930598536,0.7997710500193628
17,0.07408729979943644,0.8692398024058748,0.47344456257242884,0.3678038470164306,0.5774299967648393,0.6987836898686337,0.8105038603739856,0.3022900471534861,0.018261274469358716,0.718135253982062
18,0.033956357376954335,0.8146691074933665,0.40613461710806303,0.3371151184693035,0.6697315286760933,0.5364292779355048,0.7521366963842822,0.2690300794241266,0.02047005479520819,0.578446788933004
19,0.010494111732043314,0.7598778912665731,0.3247317956630814,0.3091414015987459,0.7569142581697756,0.4114696151942352,0.6746868590158814,0.23806852943023102,0.22588196474587044,0.4791883692105201
20,0.0,0.7034975373261246,0.2368042633320701,0.27070316947723205,0.8328546784625671,0.3808588677578246,0.5904885946362413,0.20949548836661153,0.14885033296782368,0.43544479410987463
21,0.004263018469999552,0.6384307813526345,0.15044094642521327,0.22889945003321346,0.8933654330425927,0.3914276148073905,0.5063814150541683,0.18318578081694503,0.4495623187491087,0.4492426605480818
22,0.021858731970966962,0.5639801170323625,0.9293558255003935,0.19419452616237418,0.9363406612119113,0.3215577075725232,0.4274183364398748,0.15891789119896968,0.2749963114590462,0.4588816353325329
23,0.04815798842023811,0.47731662949746956,0.9944823167676469,0.1673620909524584,0.9634623134625675,0.3247917760684944,0.3554371206290175,0.136389893272513,0.35648379634665106,0.5199329142844009
24,0.07706778803418782,0.38929538216586673,0.9587862884006562,0.14942156745385202,0.9830574596144372,0.3265286850642689,0.29094557216955885,0.11541613667621475,0.39168012166026833,0.577165486399179
25,0.10639095070371013,0.3061334023087723,0.9120501739685454,0.14612292934667556,0.9957670162013148,0.4570880194407026,0.23427938691817765,0.09589445446628721,0.9999999998850712,0.6549220333828631
26,0.12764227696579522,0.22455028897760515,0.8783718691001514,0.15163892103587504,0.9999999683957693,0.6651977092292655,0.18904274059439738,0.07794610773604337,0.9030798281848667,0.7884826789798226
27,0.13307337511297906,0.14891978889894447,0.8656061098028027,0.15842111288697003,0.9920921830624247,0.8351670017327225,0.16647719802418934,0.06180476296485172,0.07860252679887579,0.8475167964655657
28,0.12468763745777786,0.09521304922513617,0.8730555603563901,0.16392005272919039,0.9855953704033907,0.8372090476736049,0.17154099076852847,0.04761409301609611,0.18371058032574292,0.7111515417049249
29,0.1172638746372801,0.06182204197395512,0.8942422315979333,0.16170409605956054,0.964774843513702,0.9200469301882259,0.19889030725950207,0.03541322997686848,0.18438266263075975,0.587839724858543
30,0.11992421627643357,0.03819532949841912,0.9214908920066323,0.131752277845015,0.9293192489745639,0.9999999985442892,0.2404669811170445,0.0252838560489184,0.06943581529659473,0.5241040999669673
31,0.12709067532424465,0.016435155124349746,0.9580236887673778,0.08030827603757053,0.8817485035961965,0.9487792717897008,0.2917806666820947,0.017153456628566023,0.3600680858262993,0.4163861604718289
32,0.1339267086101888,0.0025966049527999056,0.9999999899618106,0.027107723003509724,0.8338826683374063,0.692502841086439,0.3493559230911066,0.010819719579410319,0.029079711060389816,0.30392608092639467
33,0.13027023582418204,0.0,0.9459518181524712,0.0,0.7853437085682318,0.5717611684866079,0.41532351625176567,0.0060632994773719764,0.0,0.31705168706296916
34,0.12399075000865518,0.008633867511498946,0.8674172695691822,0.005052997110387331,0.7326154335841477,0.5209402065290631,0.49381761331625895,0.0026864656290181,0.0690552056755589,0.3930839080852212
35,0.12763356541206777,0.03556051205049021,0.22492597260750055,0.041809042299281826,0.6717504545637814,0.5573638737126932,0.582894926474376,0.0006171689391911739,0.07580648392751016,0.41612070664375206
36,0.14929810616771313,0.09374297743127163,0.30954674016021566,0.08839050830710796,0.5994707487928601,0.6528450881715023,0.6783502516932708,0.0,0.24715676636565262,0.35943464966270167
37,0.1812376540684458,0.17538043255233207,0.3846422367133946,0.13066393032247914,0.5185443941769301,0.8277596272595522,0.7778949269452501,0.001166748328511482,0.13249531933397327,0.23550066072688702
38,0.21238642298886387,0.26555046499370594,0.4350415970692357,0.16662909731284856,0.4177850816144324,0.9460841545843595,0.8722472475672743,0.004440156501975718,0.24342930721206316,0.08145968907353249
39,0.22759535453662452,0.3417554074008785,0.4577129864287296,0.17739142655358134,0.3123097495451393,0.8349398936255668,0.944344423661693,0.009931401814400333,0.2973316584011189,0.004504088590567427
40,0.22524414406769666,0.4101705487918448,0.4494714102098444,0.19227479390499,0.21545415597299586,0.6950627823826185,0.9865304945094401,0.017779118610003874,0.009009335920208751,0.0
41,0.2156457538647652,0.4691715595352339,0.419046634931771,0.19603922444396435,0.12577129029135384,0.6530659678187294,0.999999986983279,0.028016118658070462,0.08055848920796777,0.08315922425778606
42,0.21071443069509607,0.5126191443011326,0.37938278972848793,0.20078820290899105,0.04724707895167314,0.5603392154734851,0.9904793609014445,0.04049798072316023,0.2774225393955165,0.18080595738525834
43,0.21684227542591913,0.5333131705381178,0.34211155850477803,0.2187693835314671,0.0,0.40109083109932286,0.9658328892297205,0.054947655235326014,0.24921296578487206,0.2739447834552745
44,0.233255490236854,0.5323204537129178,0.3108820004699719,0.25179507540683777,0.047929701755882445,0.27544251461191294,0.9331976588110816,0.07108769519583608,0.13589210140925823,0.3553341762727437
45,0.2593857237874043,0.5102491780632084,0.2811601120789182,0.2944291926434947,0.08495439160764626,0.22242172398692903,0.8946311849553319,0.08874889342617828,0.05158358323386089,0.42463578434706606
46,0.30485321348383193,0.4717177286508129,0.2434081699085077,0.34657547054379945,0.11952037127836458,0.24843764726927867,0.8456974218415637,0.10775883766090245,0.07543503388316355,0.4830892488213305
47,0.36921791123762776,0.42261807394332945,0.19839945222745922,0.40149316761360504,0.1433073330633503,0.2699075738898927,0.7816679590355143,0.12834673490367346,0.3324240912691866,0.5028693294704679
48,0.45891641697077284,0.3693418698617649,0.15042185845413025,0.4568472754911118,0.22310737978939327,0.23153324774965128,0.7047638113864932,0.15045464302387188,0.35404939753697745,0.4603577998496623
49,0.56386759492774,0.32351635734891065,0.10845522332782304,0.5083735693946504,0.334792109549135,0.1536311051030879,0.621372024379412,0.17373834731404905,0.10920663967480077,0.36857486063843026
50,0.6775575113716649,0.30221661322716264,0.07653474968056272,0.5452800046956232,0.43879036227181684,0.1471626193020621,0.5350118281434726,0.19791825885327435,0.03649185975269204,0.31585499118707566
51,0.7797214856269106,0.3041909839666874,0.05968649132186109,0.5625838573606953,0.5240937932406858,0.12337103647966723,0.4490542601189859,0.2227318442570515,0.2577055670941466,0.3051591355200719
52,0.8435003001294967,0.31746290918629183,0.060913349478306844,0.5668477098859991,0.5919896716243598,0.0,0.37367657599622695,0.24779257899797558,0.2577055670941466,0.286511953007603
