Frame,Center of Mass distance,Symmetry,Grounding,Arm fold,Leg fold,Kinetic Energy,Potential energy,Bone length coherence,Torque,Center velocity
1,0.9416292405269527,0.33933392235377563,0.050704981412649834,0.9999999305167188,0.5835295458721285,0.17088976809533094,0.05622597021536522,0.99999938841815,0.22977447266196432,0.8251390024956111
2,0.999999998361687,0.37468744111235386,0.017449160021637787,0.9534069146261226,0.4767667492729537,0.17088976809533094,0.05622597021536522,0.9551398324173479,0.22977447266196432,0.8251390024956111
3,0.9374218470783395,0.41809543032372365,0.00033897990323624155,0.8930197381680814,0.37128364437183103,0.12983622966263564,0.019015908766114673,0.911941134073604,0.5111096928545575,0.7564030532965688
4,0.8347698161468491,0.4726829865998971,0.0,0.8334370527781344,0.2779270753780763,0.0010024434598738562,0.0,0.871722372448781,0.01129197817408614,0.6185562768051059
5,0.7334616992619977,0.5318189234780384,0.014797560365138658,0.7632112016372574,0.19855081958109594,0.0,0.002522813536803218,0.8340020624524881,0.2121577294266771,0.6102908421148486
6,0.6375668849592238,0.5866663230742672,0.04293707633730814,0.6939831737124452,0.12747544195208746,0.03866496299407846,0.023622996957508934,0.7968432639468318,0.5480014276034167,0.6444507699214213
7,0.5502428128405007,0.6342722517359134,0.08410715471147213,0.6360795619655643,0.06640778616388751,0.16354910745959542,0.06266947558120844,0.7581959799678029,0.6266977868357685,0.779535684040157
8,0.4715046573333025,0.6803347564715498,0.1380654383414067,0.5889481801521176,0.013930735555521401,0.33376247421970534,0.12381117196273765,0.716656313736117,0.12718754194805093,0.9326198790213143
9,0.4029870235906068,0.7338979536666314,0.2009186236935228,0.5513848587139528,0.03322895884714685,0.3984684373991451,0.21069948779366865,0.6731259019125421,0.35206980497998747,0.9630879951875001
10,0.3414274693636697,0.7989575796073912,0.26740015929327204,0.5162464708094955,0.04379780999121261,0.47309748139276764,0.3212958449124541,0.6289571400468268,0.3927552763027374,0.9760593101845114
11,0.2835609149570194,0.8689162588709072,0.32916355664470415,0.48612040709203425,0.036820666855835266,0.5349366810698605,0.4436327521386228,0.5851172118737044,0.2860621300203836,0.9999999969325803
12,0.22608574040159454,0.9279514849077385,0.38122165678237047,0.45789261579597756,0.14193473456236344,0.5317514329942024,0.5588215353548396,0.5424293878384926,0.3065697562441939,0.9386998903781111
13,0.17745040406225054,0.96718659344614,0.4157952226920588,0.43146340617673923,0.2381776177986041,0.3841400713707361,0.6507287203559832,0.5015661661154438,0.1816216016032615,0.80940650148613
14,0.1327846851063288,0.992031901113327,0.42904616834505177,0.39293438647985734,0.32421243056559446,0.33393812834322706,0.71175778021198,0.4627604172740733,0.14032449440610278,0.7670170907059378
15,0.09457287762172957,0.9999999952766272,0.4269729418062712,0.3499868576379619,0.39803141698307004,0.31906418614632254,0.7447122221607672,0.42581523096328244,0.29418153388255336,0.7392940495849014
16,0.06814766256226734,0.9850916212036367,0.422410156744517,0.3210910229953893,0.45930197773942,0.326126999764898,0.7613691224137696,0.3901043726112197,0.06993157471172728,0.7404092268853673
17,0.05152273300806024,0.9477362604779442,0.41601309254784374,0.3118013460751797,0.5118230135091865,0.3876263836692991,0.7682032431955179,0.35525829335836506,0.02915097579346226,0.7443437731706977
18,0.038580095485370246,0.8924570060659739,0.4006041887703328,0.3068911068297761,0.5661919947257477,0.41489102080301643,0.7585458055769625,0.3213022982979123,0.502402071112146,0.7149326394770094
19,0.02425343091314932,0.8287193538477827,0.3630974575651821,0.297370954783594,0.6314205104889931,0.43957450449027224,0.7189694498021558,0.2884756382458505,0.975576397509193,0.6764817945868198
20,0.009010242259545104,0.7591926779501531,0.2962678872231575,0.2740508721981635,0.7163592929346768,0.5028258076985846,0.6437476956957684,0.25715546663980077,0.9816595039344739,0.6150398421035954
21,0.0,0.6927981960899043,0.20712701705476774,0.22927523668179903,0.8063893090820256,0.576482693549679,0.5445935620046427,0.22773381011084454,0.26010698626121354,0.5612464658094948
22,0.00550091201678876,0.6243090342167565,0.12047021626762716,0.17975495977123662,0.8833590800203482,0.5145951009746471,0.4465219387480455,0.20026667849255167,0.9591087449867981,0.5165659853677583
23,0.03224097721069538,0.5444438217016825,0.9760387560215531,0.12165642226848562,0.9402827273216682,0.6501003165589203,0.35956898316886476,0.1747948898962377,0.10358366713742646,0.5748348057635794
24,0.07290214781651379,0.4583717842072415,0.9622994713049517,0.0639895704111064,0.9777561231084555,0.6580103420259457,0.2832394404106399,0.1512920957249639,0.9628433308623262,0.6328603988683718
25,0.11659336986472553,0.3687922342540829,0.9066220284996152,0.025181026266993534,0.9955680438060515,0.5283939354838159,0.22405526868962908,0.12945647219434875,0.5117147815523952,0.6119358531173009
26,0.1508795762984433,0.2824153838018226,0.8710369521604459,0.00586413073851495,0.9999999707431975,0.47027375471274907,0.18351150255838714,0.10904369777069621,0.20827173688515385,0.5911900550863823
27,0.16640495684284165,0.20003768987479828,0.8545129358185081,0.0,0.9972358370218105,0.5157191485606916,0.16260633708034836,0.08999788330006496,0.9466976119079218,0.6461481287132292
28,0.17285852503296883,0.11216468156760552,0.848142084656214,0.005239875019402398,0.9875518278164472,0.7233861062957937,0.15623350070168057,0.07243519490216353,0.9999999998804425,0.8157266026671043
29,0.1693474917752092,0.043358313116533445,0.8550563521850613,0.018518742719541587,0.9676354051818836,0.9551053669683127,0.16156926582735692,0.05658403743889408,0.20258167624391177,0.964713374486224
30,0.16485040458176495,0.01422652215734473,0.8734289671620686,0.029949437222983565,0.926147720818112,0.9999999986142,0.17904945260401603,0.04262446529488876,0.16608011580098958,0.9112210376538372
31,0.15028329276195318,0.0015539725395862707,0.91076986311751,0.03861979796512623,0.8649987665125484,0.9043272020245259,0.21108015696418558,0.030684679251959744,0.03400167190135928,0.7842691472393947
32,0.13979848788795596,0.0,0.9576348366323352,0.029117189256251324,0.8008922521075816,0.9088398004124617,0.26194670798954517,0.020858337657599507,0.20179741718216668,0.6529629696444538
33,0.1334442081294556,0.015910185833586794,0.9999999899282028,0.013014521950672134,0.7378078195871528,0.850992936981769,0.32904991852349275,0.013080749058982438,0.1332109451253865,0.5027327605595702
34,0.12685717049105213,0.06885309364367752,0.9325355915634379,0.014818158821450832,0.6822722092784418,0.7182409280272319,0.4103025977048933,0.007184295154814003,0.018082249053190006,0.41232590617368164
35,0.12469958783022601,0.13176780543617303,0.15038930741847464,0.03772694168800549,0.6293207921679382,0.615698356443847,0.5012767875494301,0.002997559646533589,0.04597690184133435,0.4115659537072087
36,0.1346665456374701,0.19133734347526782,0.22993417801440255,0.07170103403521116,0.5679977018050273,0.6133662096844523,0.598586793933889,0.0005501896176609046,0.2668800350168428,0.38657883406699767
37,0.15964170844043196,0.2543829439895853,0.30735950423841685,0.096768931547455,0.490224940577079,0.7431005598336297,0.705452075164206,0.0,0.37986962861520546,0.3057318965378627
38,0.1912488070379589,0.32866231450285777,0.36476084787982155,0.1129633835810359,0.38931437472445585,0.8738138168668058,0.8171931939615118,0.0016527590098348631,0.016708827686490933,0.12878471800638955
39,0.21036535423951921,0.4045987832876715,0.3905437774046463,0.11996175790721393,0.28218867381552126,0.8328880211801398,0.9139889781757684,0.005490647194697396,0.2453208478794641,0.0
40,0.21277263878775876,0.47204891153808975,0.3898815706236421,0.11357699577155836,0.18885156052834026,0.7090444425073467,0.9757479468886655,0.011371010338754857,0.12943857580024767,0.035198331323114465
41,0.20684757652319616,0.5364255924727782,0.3677809517598894,0.09831227775112783,0.10911568823263233,0.6607953319720558,0.9999999871281302,0.0192683528959173,0.45942352879477244,0.11056283424712235
42,0.20659133060002147,0.5852210659967417,0.3361568161444593,0.07949264428114684,0.039480850400979005,0.49272715656400423,0.9965169788397202,0.029057247391808316,0.48092076722650245,0.19317766020357388
43,0.21793975291845236,0.6074787113967792,0.30727296971891466,0.08099535548225033,0.0,0.317101608319538,0.977846790359837,0.040558665374273536,0.2755005814071466,0.27634332739777195
44,0.23815544930942184,0.6024588567294665,0.28292562285682765,0.1080610254362755,0.03436622961070756,0.19820102915318097,0.9536303392118749,0.05357988111666506,0.11182032607130513,0.3434838691005558
45,0.26574882238899344,0.5726564881459472,0.2587334748016541,0.14914045834938996,0.05574150104440305,0.1567168097891424,0.9228617774891156,0.06806366997718541,0.0,0.417038526701321
46,0.3116752779244386,0.5327333502239509,0.22131995109759395,0.19863061289374948,0.06927452621628588,0.22531544519937421,0.873257880553898,0.08399324297174342,0.027485946658815708,0.48095804091432964
47,0.38950156225786486,0.4895376523953685,0.1684907057066003,0.25362555879823084,0.15453432941797177,0.34003092318519884,0.7924806395460896,0.10137794990320603,0.027485946658815708,0.5168195281480519
