Frame,Center of Mass distance,Symmetry,Grounding,Arm fold,Leg fold,Kinetic Energy,Potential energy,Bone length coherence,Torque,Center velocity
1,0.20614390206438854,0.8970462918384282,0.22299746311261529,0.3423524974630546,0.2072776741514297,0.7087286850196619,0.6321484081917913,0.29387885578420286,0.8292804396570294,0.8241778852420064
2,0.17346284160133152,0.8884053507847463,0.24088546201721647,0.3581552030712022,0.24019911715057424,0.7087286850196619,0.6321484081917913,0.27234558094958533,0.8292804396570294,0.8241778852420064
3,0.13622710621170442,0.8730835434609661,0.25348297732218894,0.3781217070332002,0.28224930355982497,0.7887792224972316,0.6720018967564886,0.25125373832941,0.4266449844055778,0.8323150231271553
4,0.09391406681976382,0.8531196570433026,0.2546963590529182,0.3946057961669752,0.3356449999933979,0.8158794796258618,0.6959670886321829,0.2316479694781729,0.31612800386045886,0.8229130148271128
5,0.052586262761581,0.8254704279062574,0.24472623024284013,0.4036905401488829,0.3912929203886135,0.8161852053001084,0.6995137223236753,0.21348759296011002,0.21710405720931097,0.7554669988239251
6,0.02115953986098831,0.792188944153357,0.22566354729408658,0.4090831876302364,0.4449875379108956,0.7758305976070697,0.6858218136578745,0.19661290249792515,0.25084068023262013,0.6746992229153457
7,0.004796600339745199,0.7555941843986252,0.19723287325757174,0.41558567248318096,0.49356168241622617,0.7237232022001615,0.6582867285537389,0.18100257062078223,0.13840285197228158,0.590098223731734
8,0.0,0.7163630291088997,0.16144955281241158,0.4148655371800886,0.5370880837302476,0.6909173948803007,0.6194791555467881,0.16656675743846505,0.33634136635677386,0.5522052322220119
9,0.003975456118770045,0.6753085619533893,0.1229508936542604,0.41053377276135133,0.5752205996740214,0.6427573363374939,0.5748512073692099,0.15315085273972728,0.03550410403213816,0.5045082136635924
10,0.016453278100872652,0.6293137227659247,0.9199539945271038,0.4044994659684618,0.6092872119665435,0.6427050034393578,0.5272039473553838,0.14047881155185216,0.10067553071229221,0.48625647883279743
11,0.03716412793833414,0.5766323224050524,0.9604166566398434,0.40083349885271274,0.6366930592875304,0.6455165390480805,0.47838398743458305,0.1281906366152346,0.08099637464254501,0.4652639199278039
12,0.06454825577758326,0.5145618029125282,0.9999999899794636,0.4045302647390215,0.6622511334595439,0.6667365885330386,0.4311390643803296,0.1160168395755963,0.6153168403826672,0.42945264530386074
13,0.10313268804238343,0.4411010149758258,0.9576532560770515,0.41628473696373586,0.6967166300666419,0.7634304063826574,0.38079198352952087,0.10391418542917953,0.6924309545774316,0.44321875775383
14,0.15456307488656199,0.36072241085304146,0.9047521055747244,0.42970162790415284,0.7352230926804264,0.8463774860357,0.3229210790146967,0.0919608140544651,0.35606014021244287,0.4803055782917776
15,0.22063031113504852,0.28451982251788976,0.8445676668664045,0.4329112055329355,0.782267190136838,0.8691552992737231,0.2599238390660643,0.08066442195561097,0.05871331332334526,0.5907554119979018
16,0.29737189674388664,0.21177582678109108,0.7874909913911813,0.42668456056048654,0.8295823884271948,0.8676599592422343,0.19932882314585929,0.07015471846470084,0.23487412747810615,0.662068276102668
17,0.38058715919060754,0.14483803101063739,0.7382198912659539,0.42195149741785054,0.8758439245674017,0.8248416775314544,0.14885126066336607,0.06043283515663959,0.09569479241092027,0.6573560149269608
18,0.46891430772737436,0.08337032687097627,0.6966503345591836,0.4164415851789851,0.9168715042721954,0.8035138134143619,0.10914675090914797,0.05151165950435463,0.10971415116752904,0.6664594204682179
19,0.5552537204735517,0.03348067551539747,0.6639337211593065,0.4116364083711327,0.9523543023716957,0.7744376583029732,0.07892363478244876,0.043384848027513766,0.16677860478953263,0.6771058744888876
20,0.6322541247514974,0.0028571173071183296,0.6397336073728352,0.40503642400931694,0.9814043606884705,0.726119364161897,0.05714643491170246,0.03603865919369945,0.08020811752359792,0.6621412629269138
21,0.6934625333549445,0.0,0.623025576307298,0.39743532589718045,0.9984184593765548,0.6953330050892848,0.04269472279760583,0.02940985050742812,0.049832898618861775,0.6614198059038071
22,0.7388607138366388,0.024110559609888088,0.611720457896921,0.3930614919027921,0.999999979088916,0.7024235534342671,0.03363224333315821,0.023434546987986485,0.201604669121159,0.6823025776903486
23,0.7573965670674109,0.06930826904228299,0.6063251096375265,0.3934192341203323,0.9915446885428648,0.7576904294057336,0.028921283891598884,0.018069327237429104,0.3655646083920096,0.7687477206799717
24,0.7336802084426801,0.13543999498621204,0.6091332196474506,0.39997188015657936,0.9738585247399206,0.8626190647000548,0.03029466443232533,0.013284296404670638,0.19100085245445556,0.8673837695459644
25,0.6600767315385143,0.21703332197586786,0.6236841515136478,0.4135758706620636,0.94402704551895,0.922253675387446,0.04036676695273804,0.009083728993819755,0.12245246281317634,0.9050779381300132
26,0.5549027591372235,0.3122466077569483,0.6510337616484909,0.42261986475480307,0.90032143274795,0.9879297631786607,0.06152008442007945,0.0056167663211124175,0.7109260216198325,0.9768056416626281
27,0.4418501422718133,0.4044864928130813,0.6892883938290364,0.41032229425661776,0.8488165352610479,0.9202208867788797,0.09369135208793798,0.0029898407316471458,0.7509337849325723,0.8836178848837771
28,0.3480926391889299,0.48444488640619265,0.729696343011039,0.3880709495881106,0.8028256403241784,0.81055535517411,0.13105776546879425,0.0011835404087440606,0.8940921181040307,0.733937294314297
29,0.2755172517258804,0.5515056270490728,0.7694790905850559,0.363303913219747,0.7593309462454106,0.7016202110225593,0.16891272631322243,0.00019724950221963617,0.29361254494807765,0.561599028754832
30,0.21650337909786024,0.6131362157149011,0.8094146733371567,0.33510337632554527,0.7214386406445752,0.6758331633130721,0.2094087240020677,0.0,0.5190420065288394,0.5274209729122695
31,0.17062383899653458,0.6679382559865804,0.8480713574506002,0.3081364595686957,0.6870755963129874,0.6164153947638206,0.2522140065526497,0.0005283046133805873,0.26961479877147654,0.4945126038720311
32,0.13373807358564005,0.7169454277755409,0.8856498787800665,0.2864134747006134,0.6583025634899945,0.5820951193417084,0.29544221893927464,0.0017295628159085053,0.058276117198379426,0.4780740278789552
33,0.10407017829751357,0.761558891448963,0.922043390235365,0.2717712437983942,0.6357033185719092,0.5635696121670801,0.3388827410908855,0.003579774370121867,0.46093116839505943,0.47937390235675165
34,0.07860206419781837,0.8036625045485041,0.9611968961263848,0.26655444044308696,0.616401233390248,0.5920774975243814,0.38360057603897446,0.006037386354509488,0.6847187901586365,0.5302813649609044
35,0.05813995691894646,0.8443644279274323,0.9950406044953486,0.27281654878605044,0.5860186291746048,0.6533679734111794,0.4364255557826829,0.009105357132350705,0.23268597781624537,0.5421999408317633
36,0.049820769427910735,0.8819395494230483,0.9436109868465751,0.28320431161063964,0.5430380769972403,0.6827952116207294,0.5009839718846246,0.01288243589387087,0.12888656383132427,0.5173914766042386
37,0.06145561507990934,0.9162510736149442,0.892858285914907,0.29141993525102133,0.49530832943060565,0.7034161341341802,0.573922087647859,0.017473977404601358,0.36200383779436157,0.49120795183789157
38,0.07375049436984948,0.9440440258933324,0.8495282557771187,0.2939945504778656,0.44232519115923835,0.6837794006408502,0.6512743790113983,0.0229251474588864,0.4372626445395756,0.38135090059281895
39,0.08378690521342647,0.9645882698889333,0.1883175881548938,0.29922149467470954,0.39140841546404165,0.6511177313844907,0.7263330719880454,0.029172825137524925,0.7617725158942533,0.3679295473602438
40,0.09890945030753612,0.9792057290033586,0.2136603554971971,0.308447370589247,0.3464925260911549,0.5928006061436896,0.7912211012589289,0.036144076757044154,0.5679235177989741,0.33192069019151516
41,0.116817579918329,0.9897353700626573,0.22971023577915828,0.3165697381104353,0.30570978190496817,0.5553422650695523,0.8426989390571403,0.043837782603757605,0.2727387726818924,0.31105623479276157
42,0.13692866888336166,0.9963730677807497,0.23961501154073372,0.3222541133080731,0.26755768099898064,0.5352566684720904,0.8828813035234929,0.05224881342130102,0.33446385087277236,0.2999359275184148
43,0.15706911741607882,0.999673603567117,0.24522005688501902,0.32734123507594376,0.23414090674542742,0.5107571510008112,0.913947853396099,0.06139012695415263,0.24363404311573492,0.3175487893408706
44,0.17510928024753927,0.9999999966998161,0.2495800445913063,0.3337523561292691,0.207344390907437,0.48380691072196885,0.9378062107493021,0.07126640543354598,0.08382012280929856,0.3247594880250992
45,0.1920699454574851,0.9966345701811019,0.25406101159166283,0.3426834278795378,0.18492616279596066,0.48980842520797346,0.9576807729668834,0.08192747884701254,0.6239672246780804,0.3664813484981558
46,0.21653124292334933,0.9868278342901783,0.25603509324401874,0.35644060912569453,0.15447447110940643,0.5571385144405905,0.9741231915276694,0.09343586889125459,0.23663673597796192,0.4246684122523913
47,0.25015485601443593,0.9678084518006619,0.25189564689311444,0.37612647049503345,0.11278754789008803,0.5878013323106115,0.9853189971834475,0.10577460706235513,0.10469564106486957,0.44826835628120004
48,0.29113857833104817,0.9409632364488664,0.2357247873170839,0.3943581487168527,0.061234728107168165,0.6155611786077544,0.9844801901727513,0.11899804057990007,0.24258693881754978,0.4416553795753761
49,0.33785226516793904,0.9088579441318216,0.20621469065937065,0.39771542085848244,0.006313695458155903,0.6251007322041133,0.9649496025088051,0.1330620027599776,0.831476797998822,0.36899924371321935
50,0.3825033408372575,0.8727420940574052,0.1774835306714563,0.394626109556111,0.01851325704181011,0.5402523947023655,0.9337915202876913,0.1479351455802391,0.5763975825364288,0.31553812035528106
51,0.4266067742876625,0.8366062936041359,0.14640482922489664,0.38998662090141767,0.05798413704318224,0.48672623337646065,0.8972267573463228,0.1635895296433453,0.48431269144962164,0.27296356629577123
52,0.46960593617721774,0.8023284063621071,0.11693958438398018,0.3835277561885653,0.0907997792316103,0.43095524447718964,0.8558227472394124,0.1799348730838354,0.2764116707822166,0.2328645884909355
53,0.5123118476471771,0.7685684227299193,0.09051474312125246,0.3798967142326691,0.11851565631124049,0.39455187025510424,0.8131460438563731,0.19689438276162421,0.4262578782558117,0.22509668706774755
54,0.5522618702292905,0.7361649930138331,0.06960002692980703,0.3866986223731735,0.14236754974669358,0.3389096933452875,0.772772037918223,0.21434941875887284,0.32010641775729154,0.22848229377390503
55,0.5886345005733703,0.7043563519788213,0.053384659373150976,0.40293530782377024,0.1631263028997528,0.2984295301724087,0.7367066300270796,0.23223223881347027,0.11331811779613328,0.24778574441244985
56,0.6248957197067198,0.6714627575193381,0.03978483208080454,0.4280268510144184,0.18365797619549237,0.28866931251826305,0.7029735958583953,0.25050043285629314,0.060950209252383175,0.277539510440696
57,0.6692172490906396,0.6363044189478329,0.026332854342060178,0.45933611938617386,0.21086226734310443,0.30269191441247656,0.6687222108203419,0.26910875637419335,0.020979208073900874,0.2806592778464366
58,0.7275566382935388,0.5987541174350457,0.013176016976741487,0.4936055577199179,0.24995959219738018,0.33348048271337755,0.632301774397512,0.2879948673103804,0.0806151367660387,0.2618520569596536
59,0.7919548167653312,0.56363760523052,0.0016899547812877858,0.530742589034849,0.2931170264897844,0.3586003195363432,0.5935402575847808,0.30717187820680664,0.23080814430032034,0.2236551312303176
60,0.8588575712464395,0.5354575600248678,0.006798027919671982,0.5613309938949991,0.33960813575218884,0.38535694919548563,0.5538140849931643,0.3265958395041011,0.11781042734217469,0.13947360886394786
61,0.9134998677982814,0.5114106534456179,0.009172796905121633,0.5904931982435125,0.38301814267023027,0.35809043543071317,0.5171332953668701,0.34611706277378396,0.049392172953833864,0.12673141020203255
62,0.9506673014906615,0.49224410219067827,0.007824002819794404,0.6220011388995272,0.4196056078727559,0.3317131499855657,0.48574824678324585,0.3656591635604362,0.04524854227623764,0.11048507393468723
63,0.9688435813394972,0.477391699261169,0.004122294835647333,0.649719817886858,0.44979197477428595,0.3106695209096654,0.45779464726674957,0.38513897292975463,0.1092613211518296,0.09914528528467154
64,0.969727930960657,0.4660081544910401,0.0012194364708058819,0.6772457242280366,0.4741400068195438,0.27377613214459506,0.43316057371267286,0.40447119194113224,0.053680172739159746,0.09177214741433659
65,0.9609252834874037,0.4564548617189065,0.007319208340999241,0.702610087414944,0.4947856212791669,0.2524430102958368,0.41182098512030957,0.42360070049372744,0.08764198942203326,0.09009111819379965
66,0.9495325321001042,0.44805052316056304,0.013022343697990423,0.7267581377628578,0.5106412386011648,0.22060913122031753,0.3932685948604004,0.4424416055321346,0.020431988274706787,0.09011649693447916
67,0.9371340157943499,0.4383239835717972,0.018970816907989782,0.7521595938934964,0.5243882764544615,0.21323085633335123,0.3771883401495878,0.4609250657353635,0.10460039496837036,0.1011347359923774
68,0.921147972797905,0.4259518945082876,0.02781036134908777,0.7816843696275438,0.5419544284315981,0.24111490510089237,0.3610441760242109,0.47898920908124365,0.06359049300513815,0.11490701312040479
69,0.9039670681365504,0.410847798567639,0.038787083981358814,0.8168171918089339,0.5622953391984671,0.25226068684581193,0.34442890677051435,0.49657320036600244,0.07409919326410397,0.12267867357365883
70,0.8856238977517589,0.39427339062679534,0.05363683097006121,0.853043335252377,0.5888555775954342,0.27153215509591666,0.32929559144717396,0.513664497775163,0.09636523091512647,0.12996726042781115
71,0.8632446637040222,0.3843761668305456,0.07172149610590982,0.8779412010371574,0.6177147547911463,0.2962314052237435,0.31545773061837634,0.5302186360870752,0.24010599695371995,0.14605437804666482
72,0.8484502959145339,0.3768759001939242,0.08611820670445809,0.8921545447174786,0.6391717427061241,0.23611669659720666,0.3051710832304229,0.546229744272253,0.19670960233211426,0.156744650541202
73,0.8345418040274837,0.37185176823845006,0.10001920224810605,0.9068750503701554,0.6588187721010529,0.20449126884293234,0.29976177435814966,0.561693618247617,0.0794408397385417,0.15080981969556653
74,0.8235061966082425,0.3723222731423849,0.10885835987351146,0.917030854012875,0.6677515094156538,0.17039702824982178,0.2956643450954108,0.5766157091295611,0.06782724701138972,0.1440743689880867
75,0.8124328934559498,0.3715452266653325,0.11943707064789563,0.9263075329406415,0.6789894204928406,0.16758615418408948,0.29160808533828886,0.5910067960692743,0.08910457246133874,0.14444610156167226
76,0.8052986974549077,0.36910996278857827,0.12854006881027033,0.9342713187887125,0.6889072718481104,0.13806595139801797,0.28837782794589123,0.6048720747071932,0.0705743025207615,0.12119899315012464
77,0.8016578971524052,0.36405983330289005,0.13573980482666917,0.945468344776193,0.6967076722629949,0.11213205391122442,0.28567363089122255,0.6182150689557078,0.014185821467150637,0.09719717438321003
78,0.7997293250675347,0.3555026863438981,0.1447046345726364,0.9590896159308301,0.7077436629273345,0.12003040091081477,0.28278651604971855,0.6310776151172982,0.04957216271675264,0.09789220217255105
79,0.8011768024549787,0.34328276378902994,0.15447329956239111,0.9753879144545339,0.723458685531629,0.10701056925501179,0.2813537544482248,0.6435142465478297,0.03276288309734665,0.08735144805449789
80,0.8034279964894041,0.33032136541874557,0.1645243185179564,0.9903352929973008,0.739091115704125,0.11812269100623772,0.2809696522057713,0.6555744180380406,0.031628839843464374,0.10842374123295424
81,0.8066871915135846,0.320494064039785,0.1728934091178546,0.9999999490784717,0.7531320194076936,0.10865017095039578,0.28130639207436514,0.667316514375599,0.012709865402639313,0.11925129653770855
82,0.8081822207490187,0.31923826391701055,0.18107031678783087,0.9943069261022338,0.7651262368527963,0.12057321410252517,0.283314486341104,0.6787412018707136,0.04960888932875754,0.14618216373073448
83,0.8101688126640876,0.319411876545212,0.18739318460871027,0.9843845158565431,0.774634884753808,0.09677325801769066,0.28523720253932683,0.6898542784863847,0.015751835453645863,0.10450557611212496
84,0.810387276512204,0.3202574228468027,0.1914351077393472,0.9755723703931088,0.7785754694215496,0.08962717599666464,0.28579830933627776,0.7006666411320721,0.04825756903488681,0.1050790510942631
85,0.8087097937348618,0.32403143737831663,0.19187443366217602,0.9638474832461098,0.7769234548930427,0.06383560442983373,0.285307145081626,0.7112102831073043,0.011388892394666103,0.06791730968471893
86,0.8064990530946977,0.3266268670291485,0.19077496378046643,0.9496999972836051,0.7730341393545405,0.06543427908074126,0.2846850535277873,0.7215083414887539,0.04252635968330287,0.0812092783807076
87,0.804597983024491,0.3277414070994978,0.1883153639646616,0.9371332549129474,0.7692648716220082,0.057184897942075257,0.284412815830382,0.7315898365856623,0.02280590962250014,0.05130134991707225
88,0.803804001151021,0.3291067933579346,0.18640469859612532,0.9231095140155733,0.7668255111187995,0.047876594893139744,0.2834256620188186,0.7414757101010863,0.01195025803993072,0.04202906915036009
89,0.8030245856428841,0.33060724324688123,0.18346436208862674,0.9061833759568596,0.7627423532213065,0.04698150281841888,0.28125107208237593,0.751200986675284,0.01339367391439911,0.04923274934509912
90,0.801922668246018,0.3331157355793695,0.1798599060165182,0.8899355042699963,0.7576649433945787,0.04669509405151972,0.27904900463115534,0.7607887062495263,0.016684937020244997,0.05610353320220867
91,0.8017216589516674,0.3344496242840934,0.17565452102113221,0.8736523206254563,0.752461892541596,0.05887274440604425,0.27732594096548796,0.7702569903822674,0.010437319839704553,0.06931348679269096
92,0.8020791601350193,0.33617122187411325,0.1671527526386848,0.857183829149539,0.7415742993156847,0.09177612054199585,0.27506782324283496,0.7796414117019635,0.029582756290879288,0.09018077728605937
93,0.805035332928081,0.33819260582320004,0.15674309106683126,0.8376271624197488,0.7301644213411157,0.1289424840410513,0.2729444763227827,0.7889585436252625,0.013445239504875136,0.1356567619747186
94,0.8082271455056267,0.34354376074538034,0.14582326257600808,0.8103384086940983,0.7160665718506672,0.12510283466903724,0.2708888487063539,0.7982166198853108,0.017534235786108684,0.14108640574449316
95,0.8127043895659276,0.35250340188332147,0.13203042499795287,0.7767533966980841,0.6950334297698937,0.14841110059717025,0.2664206877591876,0.8074620855192375,0.01464950795620385,0.1603830890937458
96,0.8206955313981485,0.3605472015704109,0.11666699751440686,0.7514330502703692,0.6705476987576353,0.1516186400021195,0.2611831193085803,0.8167255990659196,0.013821952554313368,0.12885743065382754
97,0.8309387501405338,0.3687413715221485,0.10089714493166058,0.7261186472080754,0.6456165681404494,0.16798253522202183,0.25746051897238154,0.8260154662927618,0.011935932194632768,0.14828360257992904
98,0.8401174178010273,0.37826999482707274,0.08538237580839914,0.695982432016877,0.6194107986548302,0.15557583603979008,0.2545942772829432,0.8353497177630038,0.026550535743361584,0.12213561315395252
99,0.8499112698150626,0.3875799509351482,0.0704159179293462,0.6632094490575229,0.5947812237105765,0.16815269643985356,0.2523937661496608,0.844741317512515,0.029513733345107786,0.1545222755478572
100,0.8594880070246378,0.3946505063898846,0.05740497454940604,0.6310933324009808,0.573778774324295,0.17403932728489765,0.25181560770894673,0.8542012853240606,0.024579368853719284,0.17412189266105083
