Frame,Center of Mass distance,Symmetry,Grounding,Arm fold,Leg fold,Kinetic Energy,Potential energy,Bone length coherence,Torque,Center velocity
1,0.5434746373156446,0.24269142828762305,0.9321556673199861,0.632016066014747,0.5205636351931235,0.0,0.18083813468080606,0.999991916856044,0.0032718988325569774,0.0
2,0.5446371209087629,0.24250591937902297,0.9325552740117059,0.6308198506846436,0.5219270385527635,0.0,0.18083813468080606,0.9990881849330796,0.0032718988325569774,0.0
3,0.5450877218178168,0.2434257348525011,0.9328441084541482,0.6280356942790836,0.5286424801000246,0.006376629920560177,0.17998741525050554,0.9973695525074349,0.03533994998550628,0.008285192621207959
4,0.5459783891685688,0.24686111301457556,0.9335585959197571,0.6257568585304928,0.5485524979605685,0.033593977928888845,0.17793209861967654,0.9951703270535199,0.08432431962742397,0.044543082649569694
5,0.5464813807441739,0.2570545619206852,0.9343795074041047,0.6298185704153137,0.5830689690461329,0.08830335328250047,0.1720350091594074,0.9902089121322594,0.11933974113503584,0.1112577530969244
6,0.5448163088521611,0.27446560814729887,0.9347802334423,0.653970243827432,0.6271619450365707,0.157992564959153,0.16002846642335525,0.9771405907799003,0.19096564604228008,0.1574978202412144
7,0.5405907122835057,0.31177084849544223,0.9339037421002698,0.7022917708759909,0.6571811956834205,0.27617631000688586,0.14091607736657957,0.9484169832877051,0.10867080396898603,0.20496474112226457
8,0.5336865926875644,0.3699971693355964,0.9315653842613596,0.7556686003514629,0.6683056685715947,0.345315563523795,0.11730794702484279,0.906224171259211,0.05768337687935537,0.21424912768887214
9,0.5170689997956024,0.43224396483451977,0.9251634973542139,0.7877228272771992,0.6647320418614748,0.3731781338949899,0.10016979547494603,0.8634541407970677,0.48460546793118425,0.29806385670201957
10,0.46847029170265997,0.4935983764350172,0.0,0.7830658936652316,0.6486627643229834,0.6523615688420077,0.10969205008019657,0.8312406046978243,0.34710092841985346,0.5230417680267645
11,0.381565282717398,0.552252625161244,0.03279999450987771,0.749989769704498,0.6058011454811786,0.821745485947654,0.16702933586217483,0.8112913783185497,0.3478077394194426,0.5269060913691471
12,0.30468122817454185,0.5989350764914209,0.06630877212351854,0.7135661902855704,0.5462652560208244,0.6807427686788844,0.2590622735582221,0.799432708442743,0.31960838633093663,0.43950008110139427
13,0.24434307889641657,0.6453321123618578,0.09650899834069133,0.6895236564899525,0.48578892171735016,0.5744262827609762,0.3467954641691271,0.7923329714413053,0.3034197375343002,0.39642561642372015
14,0.19574877598614152,0.6849352822539313,0.12566663941959855,0.6734504736683047,0.4177554418615025,0.47931146984020745,0.4225140255708279,0.7888856645980177,0.24248676431256858,0.3358005988214534
15,0.15547597796643942,0.72228756681518,0.1549608622943991,0.6606439591626809,0.34514914596563273,0.41179817238183825,0.4956040404437597,0.7879607102292876,0.15040201519363325,0.27127809733852626
16,0.12227679791285395,0.7566110795096721,0.18471016408913343,0.6436066421113322,0.2682831903318605,0.37108452980170104,0.5670127793048374,0.7896427421157655,0.08584988243958883,0.23847360913873683
17,0.09689139735693576,0.7902099429931314,0.21329170767340058,0.6166431877958924,0.1949989042612339,0.34321458674849875,0.6363764576078454,0.7948886440304711,0.02412724830049049,0.21377445752670135
18,0.0747310141696607,0.8258444853412698,0.24298336312465152,0.584397130071789,0.13128130970764548,0.34762037033740956,0.704599965194854,0.8039371083958934,0.028725664197271027,0.24525516709650316
19,0.05376210312028465,0.8660518371877517,0.2750916122756753,0.5617382382104296,0.08396024612551713,0.3547302123046747,0.7740521734424192,0.8156713963861169,0.19284611267744514,0.29498626148128637
20,0.03069146638009604,0.9126934459633299,0.3148992215800963,0.5601162701304591,0.05498391799155286,0.41755250444409553,0.8451520532752027,0.8276066514994476,0.14063545795762072,0.3977189541776442
21,0.011318867313576777,0.9592685614566642,0.3595931980045918,0.5830374725031635,0.03197725757083271,0.48736364712015473,0.9130594649588087,0.8383560889908684,0.36447403231236103,0.47773169778684355
22,0.0015390017225850598,0.9918658537694836,0.3981359135029637,0.6126037897132336,0.00672064401451363,0.41233827086816605,0.9697666169510788,0.8470088626477106,0.9999999999687699,0.3773522516314013
23,0.0,0.9999999960509934,0.40669660000623886,0.6186278258533318,0.0,0.09721505165324044,0.9999999740613797,0.8541133711566476,0.3398153067963332,0.0667758396698987
24,0.00455501481506739,0.9880276442535942,0.384932759018837,0.5992377251750076,0.015756721795554828,0.22076351565642588,0.9870525978913783,0.8600697549063335,0.7114999436441042,0.2521180364059451
25,0.018320220431116765,0.9547201325043797,0.34353122185933177,0.5655166661797589,0.04630836143676515,0.41639600219842454,0.9315899239243582,0.8641105521991307,0.12850818448810467,0.4452789909439321
26,0.03617397800219383,0.9111134365143861,0.3010634318413745,0.5436914787273806,0.09471472241507771,0.4388726868748088,0.8553282739232939,0.8660944781753801,0.01306857045949742,0.4491138739304003
27,0.057786358616121615,0.8672134591993771,0.26058687309958906,0.5424928692455331,0.17181383906417885,0.43126229525592313,0.7746517420440755,0.8650544796377699,0.03165287323159675,0.37775026570372816
28,0.08595049491683038,0.8241586172924222,0.22153956912564046,0.5533524779408635,0.2629415280890105,0.4423572688444406,0.6897071753948857,0.8612326290349158,0.024127048973444136,0.3245721602166664
29,0.1213398451983993,0.7816380156700199,0.18334374340517554,0.5685480660722008,0.3588702772841232,0.4387069276416587,0.601807774680927,0.8548394551473895,0.02896475060096365,0.2851626793483745
30,0.16742172876856512,0.7340778025566467,0.14478180528367787,0.5846479916209629,0.44510319907242274,0.4501288554115022,0.5133954921234727,0.846423365602035,0.15046237550808841,0.2801464458895017
31,0.22584549255288922,0.6830256206860885,0.10637420782042363,0.5992991404491279,0.5106808859836621,0.49394343499579807,0.4268696551200585,0.8362611126636295,0.10970008611432792,0.3446674356957941
32,0.28912418586882843,0.6355957846021756,0.07225392261691121,0.6235739521664332,0.5640893706702148,0.5287251026585026,0.3479332613163236,0.8240781841349197,0.27889810730973047,0.40699447816239925
33,0.3621358714563484,0.5937112469020551,0.03958887393500117,0.6820692831517856,0.6039560714581127,0.6252168931660333,0.2747660378695317,0.8091444868674981,0.4578953890568872,0.4530702803509542
34,0.4501715081257346,0.5539118773518394,0.006682972027835101,0.7731537516269805,0.611586453041678,0.8052007568553396,0.19849624682276296,0.7914183522340421,0.410835463750286,0.5652743510873369
35,0.5120653384680182,0.5247280032882952,0.9202701235557212,0.812896238963038,0.600199846395971,0.6008462385552188,0.13556061870940794,0.7713508065214484,0.4840740580958108,0.36144590135339305
36,0.5587124598398212,0.4859207708318513,0.9327233266642732,0.7187037089605046,0.5637218810906821,0.3280090869131319,0.11009768831828964,0.7509784401958057,0.17342324141094084,0.23736118930754857
37,0.6042836419646359,0.43460322884113783,0.9445025755651619,0.5334538092219082,0.5431676921162014,0.4297295661506668,0.12274759194640032,0.7308636123516907,0.3280846143563333,0.3594265534126238
38,0.6370086145141656,0.37521200679761857,0.9545611090967332,0.3484049507768113,0.5693609810198444,0.6306867995387143,0.16056574830555656,0.7116069863309813,0.0385142384764935,0.5085283305145137
39,0.6499405830532903,0.3311659944815417,0.9624853933140057,0.2383031779007141,0.6520044787199837,0.6212277208589294,0.20179427631705646,0.6928663352083725,0.21140894935420185,0.4801161391308155
40,0.643925941093558,0.3072869847863647,0.9654250124173588,0.21307492122293148,0.7478240357719299,0.5299965039160749,0.23573265568959834,0.6743334044046487,0.17028356720996754,0.39593893485726595
41,0.6263804905877377,0.29631122575336954,0.9629413547955835,0.2590286375417542,0.7763480609412835,0.46052845716880836,0.26744754198861803,0.6558792576807416,0.060640744981748554,0.3234691355843875
42,0.5925479567034383,0.294580241281418,0.9535231304997319,0.36881194692802455,0.6774558099957891,0.45518146372032076,0.30195811309636666,0.6373874349103241,0.0032879321550457973,0.3623707652855185
43,0.5378946423712712,0.30453024814622526,0.9364255436057839,0.5223625281432424,0.5688701355734049,0.4720274472904625,0.3407632967350535,0.6192832356193253,0.0654451498447179,0.423582079964022
44,0.4687590814475287,0.3414476078736471,0.9134107898803284,0.6727570819980088,0.4909799784254973,0.5291175156255769,0.3784149334956331,0.6013998993652381,0.2668608959603865,0.5100040215854277
45,0.3708615081950811,0.4173973090407211,0.8767346061555894,0.7862851713385922,0.4238582271412675,0.6963120978099077,0.4159711648473045,0.5833201009543157,0.36553212173548344,0.6340743534467709
46,0.2490495114361442,0.5168511731716131,0.8193232608543463,0.8743217573575554,0.33666552018940255,0.9167960395592584,0.4582971948466533,0.5648041039730213,0.2627295093288436,0.8486600101997576
47,0.16230524166150773,0.5901927365101496,0.7664189856622181,0.9451439468751521,0.2531166603916968,0.7720400189131766,0.4911142063231925,0.5463717016130698,0.5391612473542069,0.7431381964475519
48,0.11720437716445677,0.6297827803342191,0.7329119301200779,0.984849511006089,0.20235068866084543,0.4797261860114983,0.5019188064401299,0.5289047992984024,0.5035953226046411,0.4883892731014752
49,0.10247270206454528,0.6474217278498018,0.7206345505117399,0.9999999578292994,0.18085415050798564,0.22351417868445317,0.50061608621858,0.511745730898235,0.04939607768579338,0.19643445267494977
50,0.11193947539073726,0.6510566246814711,0.727668330030146,0.9979953124585105,0.17884729103270916,0.16369883021643325,0.4992471472484318,0.49371161045241085,0.3768387048734315,0.12626729545760793
51,0.14520173149523635,0.6485838609474542,0.7513029003404635,0.9884178972122544,0.19552220740423268,0.3479391834377021,0.5038727700123651,0.4739089207276695,0.5832417494058963,0.3983685139222928
52,0.21505844930403833,0.6356701078360089,0.7963319273012992,0.9739809157148328,0.2469481796559208,0.6327702781445695,0.5072496370286383,0.45302393110605094,0.6657377847796638,0.7372171073911324
53,0.33374043880613297,0.6012487546319418,0.85820550427496,0.9348555695211676,0.3351754780502312,0.9436843565092932,0.483179142241214,0.4334545115698178,0.11785421824768139,0.9999999981509226
54,0.4675816814937507,0.5512584531359608,0.9107543869611467,0.8864940339920421,0.4344088085641345,0.9999999994128721,0.4256207719198946,0.41703056710898745,0.19979162915340365,0.976715552483021
55,0.5673877865035735,0.5112185647213334,0.9424315262749361,0.8540186082964236,0.5508421973317403,0.8751423485107893,0.3633786853090768,0.4034559816974478,0.10543486336384021,0.8373441495511359
56,0.6066170316650142,0.49078160596218906,0.9546733881585738,0.8329261317104,0.6918195739910663,0.797139393408213,0.32208952369217336,0.3919773090952401,0.2040861588943511,0.7444903771329477
57,0.5765450776590971,0.49344095862284804,0.9486386899471487,0.8243689024729437,0.8373000756907709,0.6831451320793194,0.3011134986960968,0.38232263660128396,0.19002134694210232,0.6079970559205772
58,0.5144856284082829,0.5056667467186778,0.9292542351521593,0.8227868590086901,0.7495268151992003,0.5913804987719007,0.2918366856036489,0.3743799809357887,0.16789939148995758,0.46841365144492625
59,0.4564008207330236,0.5187037419809314,0.9054835781415048,0.8292570768204888,0.6387009274850359,0.4899009974934555,0.29057178731278155,0.36794381986192176,0.008985013779688024,0.3527184778185568
60,0.4073054370625893,0.5395935899430501,0.8817001132240645,0.8486018410220904,0.5618755167831629,0.4495506399724386,0.2905377866733367,0.36250677758129235,0.11392373687423929,0.36539805142277804
61,0.3630837027135102,0.5693889774193858,0.04964768730319128,0.8820603447344976,0.5087803182388911,0.48820429606574794,0.2873628952317146,0.35724265366329483,0.08173394566438293,0.4420913884046922
62,0.3177139923486039,0.6034424280659588,0.07629635630926404,0.9235491729789304,0.4682010696417685,0.5326253515099648,0.28209154269186504,0.35175594251773756,0.4103036337045199,0.5040208919535211
63,0.2888517139034089,0.636395357406704,0.09554747971831778,0.9648536182056956,0.4518944193760242,0.32276145821823815,0.2777768916410429,0.34613000629380164,0.2786237216443359,0.32460115744886553
64,0.2724901723301982,0.6508491201751386,0.10746548453036923,0.9654219239115822,0.4340998661893471,0.1600764798329433,0.28286284254642896,0.3412058253607277,0.03285380339375887,0.14421514760825743
65,0.27165687457666643,0.6442545691191232,0.10811104608416587,0.940496072320469,0.42454901981010945,0.14737392845174957,0.29096276236239055,0.3372949468194112,0.027679264133974472,0.029528095740889077
66,0.2807084295350755,0.6258903415386319,0.10263556906667472,0.9136957241472183,0.4150466800193315,0.1334401103843708,0.2910431541397041,0.3341701310887105,0.03275427740841427,0.08069434863359788
67,0.2910696301460129,0.6047825497082006,0.0966532648806561,0.8938595160242517,0.4049793702170252,0.11753444847943272,0.28929498189457586,0.33141755829567043,0.17519307164856857,0.13580079662586503
68,0.311804043703276,0.5721948418222512,0.08432895882392585,0.8720716900155284,0.39929941735210184,0.21533800879261614,0.2884048743602845,0.32864392718839547,0.1994419427427866,0.2588739362930631
69,0.3432835843312199,0.5258738560739932,0.06539357722451179,0.841658560790236,0.41064651781019323,0.3273436440830031,0.28874931303665524,0.32574955924191745,0.29052578116639527,0.3840460652021565
70,0.3936343003154802,0.4713678183376395,0.870167292754915,0.8170609329624254,0.45875959810096334,0.47806238210618535,0.28666825748010266,0.3229620183939275,0.09112959156714646,0.5074653146587395
71,0.4576967329172519,0.41261955768210273,0.9025975154618211,0.7720028537545358,0.5587075651732507,0.5286693869552415,0.2765225941273187,0.32037896019490497,0.0034525952263414024,0.4705209669580196
72,0.5367084231874172,0.3607695042015721,0.9348448111235734,0.6780655160502033,0.6764213547074968,0.5463090939003046,0.2588174666942782,0.3173025781885217,0.0018432078885583364,0.4041666520995812
73,0.6209534137015819,0.3172858196085754,0.9604817631230294,0.5474004420181426,0.786294752529931,0.5631946106142369,0.2475829542384668,0.3129903405061147,0.07466876198060594,0.38390518450133965
74,0.70152161892391,0.2784261070219683,0.9776493522234777,0.42374585680475113,0.853703940639156,0.6118023695763303,0.2513564521162946,0.30766126300795793,0.05169258896260821,0.43256443652778775
75,0.7514297546548223,0.246736050291501,0.9848561784018028,0.35153049314971724,0.821591458201433,0.6536393578465998,0.2638435146507754,0.3014882925056785,0.013557299059959747,0.5103250152772509
76,0.7370651898006051,0.22421003359478958,0.9811709884422544,0.3387671645687448,0.7467683886988996,0.669464169055143,0.2831430337139634,0.29462362206727305,0.04392492590535075,0.5705403801246149
77,0.6684333482494744,0.2156116642216367,0.9676127320517519,0.3816539663444837,0.681059330930321,0.6692814098323445,0.3100870441907074,0.2866709369217736,0.0017811127703819044,0.60454373095058
78,0.5616640623505356,0.23826576664252608,0.9413903618456587,0.4676051517882824,0.613390727056315,0.7471864236501703,0.3483551558703296,0.27697151345995935,0.19124277296239642,0.6726425307584822
79,0.4280834902172922,0.30994007212093244,0.8987242968202983,0.5818647480538334,0.547205117063417,0.8868962770303013,0.40320561521854886,0.26501929469229674,0.2616349342605648,0.7818518246277195
80,0.33276767528462325,0.3693936313790123,0.8590633326671023,0.6976352178796715,0.497670498060008,0.6847653287456976,0.4634425456278391,0.2516353476730973,0.4254977401933713,0.6183821428155014
81,0.2811898778993166,0.3880122601639061,0.8337493551775883,0.7739210967142914,0.4849180548967652,0.380093857849339,0.5096780570985374,0.2386654291752673,0.30382370901138644,0.3615771093856737
82,0.27686154524258993,0.3669059366411194,0.831308082040622,0.7874475221069085,0.5173932841153533,0.21518153311592658,0.5297010375648626,0.22685827018069846,0.02317919225232535,0.08936349041314244
83,0.29769465349583657,0.3272691590919711,0.8427494605130883,0.7482700111108784,0.5805379490012872,0.29310399206915433,0.524117715429581,0.21656820958667172,0.07872372957374728,0.1828426707233666
84,0.327339480576835,0.29258526327995343,0.8586795259814006,0.6963984234341419,0.6436627540962601,0.31888423640733565,0.5022105920230289,0.20775912699525184,0.0616711445057119,0.2567791253576232
85,0.34957203852055124,0.2720729992840385,0.8715767006487072,0.6541903973716174,0.6999229729511379,0.27648731205223476,0.4727402256496654,0.20034420028111996,0.09342441970905208,0.21248359049617344
86,0.3672430359160365,0.2744749544873458,0.8814626610900221,0.630276446352047,0.7359227797947341,0.23191442468856524,0.44562740482720653,0.19383843945737947,0.05839031475305464,0.19711619250640694
87,0.3818986092342224,0.2871719061361055,0.8885024893845741,0.6167526477289816,0.75078088462485,0.1992295528895774,0.42287004965922736,0.18801117548584473,0.10633372769215786,0.17169356295080176
88,0.39007270980526265,0.32141702343705836,0.8931507047790591,0.6204483133642883,0.7625363536677479,0.24029248795947086,0.4029166991336275,0.18248338778854656,0.3998185812535508,0.16315155685244295
89,0.3857793085167875,0.393921561614857,0.8929041902437447,0.6494684805336755,0.7530600003518154,0.4171365356531889,0.38708304089041745,0.17676153012186943,0.6130706674056908,0.23399538829501523
90,0.3705889033451201,0.5108298527556911,0.8862026628954903,0.7115089540376521,0.7191262226759395,0.6874233464958632,0.37792519131133107,0.17011140132028402,0.24969249169007507,0.35334866811231824
91,0.3598026677559469,0.6253117263613025,0.8766914036868175,0.7926831563837461,0.6622110250770153,0.8033111165699678,0.3760900278742448,0.162032470925993,0.905429337610353,0.3994315314095319
92,0.3729668243895872,0.6592497911745552,0.8786335343993278,0.8415588203924607,0.6171013579941268,0.42102684119926814,0.3835605242394477,0.15273294419428485,0.01264346181574181,0.2307279074462051
93,0.42069187998800156,0.6023534313596585,0.8989313543923546,0.823112720021677,0.6157391056477528,0.43611308784107644,0.39566892895861855,0.14280423703235265,0.727607644422802,0.42470795726458427
94,0.5052915926770699,0.4783586416580968,0.9295737655191001,0.7508585153527156,0.6581873171237413,0.7934906316268197,0.40047752529977015,0.1330421515486884,0.13208245841765226,0.6249092747486688
95,0.5981949917309767,0.3450704329718273,0.955460030420059,0.666105222947747,0.717279440618795,0.746918702162074,0.3958623290932087,0.12401680545404556,0.2610178199440281,0.5484412432094101
96,0.6927815177812215,0.23273527953545883,0.9759234921655522,0.5683612217588293,0.7836642213372507,0.6185287037859146,0.3846410716841183,0.11571041727296959,0.16683636035871327,0.4856108091361066
97,0.7813572791993183,0.154898872288125,0.9902617177904748,0.43659025461714746,0.8574834938169946,0.5128307225767181,0.3680321258993801,0.10826175966824583,0.11483911884368413,0.3924421530526922
98,0.8583954897902119,0.11786172667558976,0.9994452237407914,0.28441153850289197,0.9430077417313716,0.4164049718945424,0.3475861327217251,0.10194310230518325,0.10606802490936479,0.29045289051935064
99,0.9195913638498192,0.10119823252902012,0.9953844930387443,0.15185575849574495,0.9999999398180187,0.32001666594257583,0.3233903131626301,0.09711034760462853,0.06537162930621107,0.20927662228418203
100,0.9662317462553442,0.0821477911513861,0.9928062075880096,0.10115103223039916,0.9656257866512823,0.24181812614950846,0.2954930317728604,0.09419437803839913,0.028418303702190062,0.11686852308037719
101,0.999999998424381,0.057531668294014564,0.9916513433879035,0.06385734168402685,0.9338795817920946,0.19155868127840656,0.26297713552801,0.09332575436661951,0.009460882433666665,0.05987194694310027
