Frame,Center of Mass distance,Symmetry,Grounding,Arm fold,Leg fold,Kinetic Energy,Potential energy,Bone length coherence,Torque,Center velocity
1,0.670088597891013,0.18700906059124622,0.08386847963703965,0.6594408337824004,0.27267645285172726,0.0,0.5152656849492184,0.9999995638284626,0.006146921997431861,0.0
2,0.6413164826288249,0.185496153645738,0.1034226870035664,0.6213627164557334,0.2543250434425332,0.0,0.5152656849492184,0.9727927092592727,0.006146921997431861,0.0
3,0.6112658648213316,0.1810905459480615,0.13102515249163985,0.5791483330562581,0.2370843232210015,0.024789650218661016,0.5296858923790766,0.9405539814335085,0.03164143972731448,0.018237357526299153
4,0.5781946756349694,0.17276293652600785,0.17192294593009533,0.530628699677226,0.22054816881826583,0.06432267538648083,0.5532750563270463,0.9033060957692791,0.01773244891901371,0.0470097110504423
5,0.5439478579912972,0.1664628241501988,0.22463482788901154,0.4778620206362525,0.19993306106937736,0.09287187601289776,0.5883937091980965,0.8623660017653885,0.0,0.07315653575134114
6,0.5069314904319308,0.16258058619044347,0.2871713166003606,0.4269017690145281,0.1690793098173072,0.11488550323964354,0.632504299484911,0.8186175299525571,0.009007899359186411,0.09004860789052355
7,0.46470457265616527,0.17699416526944878,0.36387082513358154,0.3753861100592028,0.11654861282888683,0.1428938026771066,0.6819110859852682,0.7729897981612791,0.06521757389565876,0.09416732671942965
8,0.42807407695050115,0.21797661090047993,0.46503643938946776,0.31253690339831103,0.04896410315894668,0.1920993976087881,0.7385071916559257,0.7254488052095863,0.09393099560520185,0.09961887893943198
9,0.4137755444224859,0.2666817113703889,0.568793892845654,0.2251492534185522,0.0,0.2435955778094139,0.8033319112688398,0.6748575140128744,0.172753270889851,0.12890259101807833
10,0.4172599781370072,0.2882518653734228,0.6590748470844863,0.11595820811059443,0.04182498021921527,0.3148441898163251,0.8728067907420987,0.6202938280724997,0.2841872076871904,0.18460309553792698
11,0.4212040300283966,0.3948291398187847,0.7725288110143792,0.04494314296843918,0.04148748050701093,0.39972004845341724,0.9438195260329189,0.5629644191680159,0.12738344135862423,0.20067743238870256
12,0.4140236930799409,0.5492248650318001,0.9046900043233076,0.0,0.10997003497309206,0.4435480192777031,0.9961068723712283,0.5051578966134972,0.2331568496681364,0.156500161285594
13,0.3680539240628684,0.6571191310300577,0.9942687347505905,0.08826159127772422,0.21780940179182806,0.479673034409271,0.9999999898937523,0.44843923157853394,0.578091216239836,0.121305376677544
14,0.27183591826058856,0.7528841545133127,0.9999999771528859,0.19821249303170116,0.3336352085825085,0.5493693521045129,0.9456990315867745,0.3937136193251359,0.7421294153274478,0.11720582255233815
15,0.147544300214599,0.8295234364668289,0.8811487098751576,0.31503517827618777,0.440565406769275,0.6200106623659498,0.8411959670249459,0.34112247592134465,0.999999999953849,0.15749873867796962
16,0.04862076298819228,0.8880445386620606,0.6402367152161825,0.4077151199099144,0.5206703798887495,0.6993624442405488,0.7002247802656272,0.29077732914532434,0.6615769741531181,0.29246709368178314
17,0.008392958740993977,0.9657703028841522,0.3243267245164277,0.4782746300336431,0.6034184414392425,0.7670813320350549,0.539586431629928,0.24331054670937516,0.050250943562236694,0.45099644389400984
18,0.05732354503248133,0.9999999952606559,0.039861520638425185,0.5350350671427385,0.7143003104713761,0.8053442071996181,0.3781027659303418,0.1990836531873907,0.07621350703457713,0.5853594491933104
19,0.2365840566258819,0.8754727809892294,0.4101105093871765,0.5649993700118532,0.8430432350572433,0.8191950889753458,0.23414323246520372,0.1583728927610995,0.3081970314833436,0.7349214280716047
20,0.5402740424403405,0.6195945646504339,0.6954350732950605,0.5705651752505564,0.9589684334667962,0.8746507930537025,0.12234611285549708,0.12149354775126757,0.589493451535,0.9016523834465127
21,0.8949296068808333,0.30403687628655074,0.8422274954222387,0.5649885880767315,0.9999999773750519,0.9575283521127798,0.043952623574809065,0.08879370067025241,0.20856246348664872,0.9999999989748874
22,0.769189982270849,0.049450501544711756,0.8165193204118183,0.5501040084359416,0.9511224870951481,0.9999999996898139,0.0,0.060511840190419344,0.1344089039574993,0.9396036560955638
23,0.37574401064208107,0.19976609283371888,0.5952165348459874,0.5216110380157262,0.8414806568191279,0.964604114402911,0.010340534073649313,0.036815392986294146,0.017084328706921673,0.7876285455930307
24,0.09913117938458452,0.23751372630810674,0.23328443667863602,0.4604116727394197,0.6955397872201593,0.8831083900975838,0.1024368204445764,0.018168567416003405,0.22997418414828047,0.44600069761841726
25,0.0,0.32404875616376744,0.1513689638585831,0.3378511005501069,0.5690257267044552,0.8825892870054336,0.284077416444983,0.005531472829869568,0.20434157288024285,0.2371476883710572
26,0.05157753572181462,0.4735073059487469,0.4509767228315362,0.17685814188936616,0.4658678005225939,0.8854397475259848,0.5127187128933905,0.0,0.4884015019637401,0.3946141596989321
27,0.18549472879725068,0.43910573405124287,0.6523181517042488,0.06310756210765439,0.35796338992496435,0.8356106280971101,0.7127491075352851,0.002101160904012316,0.3437354595491105,0.6036640639537629
28,0.33918032403663956,0.3035273511154266,0.7376325298763885,0.08272596757779992,0.25914822401634763,0.8003848158546434,0.8291862085723449,0.012721389787282615,0.45324937169739504,0.6935726275770043
29,0.43881500544355,0.30806088574311336,0.6453650751066043,0.20254271445173147,0.22598002641406328,0.7883803951930255,0.8250422244247294,0.033614934376389786,0.7221890485107817,0.7534929067276059
30,0.4948889279821871,0.265775479057557,0.40857454595869114,0.3354753401269359,0.1439003298089498,0.7571194228885586,0.6917512896107966,0.06632326683530511,0.4275409986986889,0.7201632898761824
31,0.6175839008831516,0.1361938877922008,0.1563338851289563,0.4888802138029869,0.20210677144208,0.7436868910631578,0.4908687592150083,0.11086515136704599,0.34431721308294144,0.7303641840906203
32,0.817114088223931,0.09447574960857355,0.009653456839396179,0.6155891697302168,0.32880749170913876,0.7047790227529372,0.31483332148683807,0.16461724824697607,0.42358111056185355,0.7419700815878585
33,0.9999999983238004,0.07928339824405538,0.0,0.739252788259228,0.4295175196322357,0.6089714330666381,0.22217433284487995,0.2216596211449764,0.39482747808165825,0.6764949257176757
34,0.9672594496940023,0.06127315351488072,0.11308033290777107,0.8721228219883722,0.5483030471119761,0.5074236536724376,0.2106002645320253,0.2789760112085572,0.2442478340519979,0.5561994089908693
35,0.8741095465992882,0.0,0.31567241749389646,0.99999997286289,0.6975484734571322,0.42776343790560895,0.24437710182982106,0.3362705069476745,0.2442478340519979,0.45697599662848953
