Frame,Center of Mass distance,Symmetry,Grounding,Arm fold,Leg fold,Kinetic Energy,Potential energy,Bone length coherence,Torque,Center velocity
1,0.5775226983953637,0.10321205413842843,0.1029023958158662,0.9999999550411411,0.4415285287603178,0.0,0.4230849438622073,0.9999986586357789,0.016256466491032708,0.0
2,0.575517970432594,0.1031987206395994,0.10319398208040402,0.9883886321131512,0.43919654328442986,0.0,0.4230849438622073,0.9974100550822357,0.016256466491032708,0.0
3,0.5725301669604823,0.1030728192063514,0.10205206235182931,0.9768157386190697,0.4300024048998746,0.0022227578002423547,0.42090867136905863,0.9957679246990874,0.015725062178400796,0.0017357255477869731
4,0.5670751360902513,0.10439511939772315,0.10176706855488589,0.9590630153456998,0.41510644042353045,0.00815098182035033,0.4179623416248783,0.9944602231901053,0.008868465508813027,0.0046745861998393765
5,0.5608634644314647,0.10798350864921169,0.10197731610054249,0.9355127907986299,0.39763131606217156,0.00958149813457557,0.4147254464365536,0.9932020661073269,0.007585854804322016,0.0050004221568020505
6,0.5568412396943077,0.11325457532141771,0.10127514715999554,0.9080788675598538,0.3833030585622543,0.008044981735802021,0.4110925285684176,0.9914377723226234,0.006557595043412297,0.004861887825867647
7,0.5532191541695548,0.1175902431963378,0.10179512211303067,0.8785053651996726,0.37290368794713,0.0050279988296235215,0.40781789572920735,0.9894535699947096,0.013282401308904318,0.004660525579267144
8,0.5501753103446745,0.11934594445521456,0.10121534067340113,0.8510559173041459,0.3600786243457362,0.007466962017698408,0.4051418256157499,0.9868263899799357,0.017035667316752864,0.00645897400104675
9,0.5468835863141831,0.11749833390333118,0.09960971910546626,0.8282575209111903,0.3433853715310507,0.012630950925501773,0.40228352367445824,0.9827239183680286,0.007787132989924587,0.00561716956213642
10,0.5435082973502885,0.11595598997543372,0.09988404164191497,0.8026853961528867,0.33003118185042,0.01592514372914261,0.40078488396063877,0.9768493912895105,0.022670885856211916,0.007779875615940752
11,0.5396075476511855,0.11381879768085716,0.10192059242253541,0.778720701922834,0.3195683972453523,0.0238164968419837,0.4012382292917155,0.9687960656797959,0.03635940689414962,0.017031220560816476
12,0.5318577322427541,0.11251256066225594,0.10850020707658047,0.7556910441156082,0.30509873738308735,0.03554021927478026,0.4055902306335091,0.9588805039591971,0.004690504438052351,0.02608581125898082
13,0.5267415420798057,0.11473560853450009,0.11423503732204579,0.7280205135331475,0.2949689846179796,0.02920499689869008,0.4125582777655752,0.9483292590099497,0.01569306315732643,0.025840926602221207
14,0.5192164128761179,0.11741785510555398,0.12122691833986687,0.6869327738257825,0.2774899165068371,0.03285323645053982,0.4199621919348556,0.9381561159620542,0.009124169340920888,0.026031996523613484
15,0.5117924802642245,0.12175610889339501,0.12824080586821904,0.6295224421562062,0.259401522122448,0.03183965407701416,0.4284721434363002,0.9288266114882802,0.00253666428491834,0.022936824943632358
16,0.5063056262188999,0.1268803556257985,0.13354575031313612,0.5693336395098296,0.2435296865087151,0.02612649866743731,0.4364083918117525,0.9204013762001865,0.006860022718677168,0.017787924373257467
17,0.5008382969680721,0.13192633070695167,0.13924984732837697,0.5185785425672514,0.23040237200181957,0.022434375566652235,0.44376699808839243,0.9129031575640776,0.004392791241711797,0.010454938010372332
18,0.4961833014663009,0.1358890874507859,0.144487017412197,0.4871629969204447,0.22158780965440675,0.017804997190748913,0.45093381558695894,0.9056164100058419,0.0,0.00987884168224464
19,0.49360242951467254,0.13767039317756985,0.14721240991470216,0.47837301268947374,0.21613787022209544,0.009141533879228204,0.4565288411575776,0.898739695852599,0.013055724763584955,0.004879697099281834
20,0.490923946784845,0.13907355319743633,0.15058689962222768,0.485463841576713,0.21320351329472828,0.008633996608994412,0.4611014283056312,0.8917975852046364,0.008547309021738251,0.00889046541891109
21,0.4899464627215416,0.13903617408488947,0.151930956738483,0.5038892410622904,0.21262907061579714,0.0062901174255981206,0.4650591616725092,0.8850447315633132,0.0029154193474437494,0.009628667941998882
22,0.4900480388397733,0.13741612285766172,0.15194167542680198,0.5260720108753758,0.21530823480156314,0.003161513198907628,0.46692010148277346,0.8788437712509317,0.009878484001371795,0.006553876590044675
23,0.4888027021536872,0.1355823941648629,0.1532492368321657,0.5496857130958217,0.21748085957590688,0.002051307208201943,0.46801307230454436,0.8732288407512341,0.006958088704486615,0.005813870098890023
24,0.48751841592365325,0.13268392019692068,0.15439701389705635,0.5727804582594493,0.22162207786515467,0.003896155866958118,0.46883850528037246,0.8684433789505986,0.01816543165555668,0.0061455329229153505
25,0.48542509096834524,0.12916638210502454,0.15565295011553815,0.5937691097240438,0.22557060289621733,0.009882449481339466,0.46864895591075806,0.8646554542657137,0.015133008220710793,0.010465905394920145
26,0.48347285443555116,0.12584207589372848,0.15607595888154552,0.6101257687735901,0.2290430493527456,0.012395112456008791,0.4677839188912022,0.8616289392878584,0.030535301023770205,0.012314370179046902
27,0.4822784654759575,0.12299150055472849,0.15506010231028078,0.6195604322456933,0.23311387734677594,0.022799728252725214,0.4654794363918175,0.859778589187544,0.011577472040562848,0.02129112693913536
28,0.48082341131081335,0.1212668346402771,0.1540198204094393,0.6244690468805132,0.23609051667752104,0.02293539527467365,0.4621125646151474,0.8590632805408577,0.00938218161393848,0.02162330798737471
29,0.4797797245210882,0.12132883143516716,0.1523607239694702,0.6237975592440801,0.2383326911417318,0.02189672017682617,0.4585120548657348,0.8592149154248069,0.014581470851330347,0.019010473806174565
30,0.4787995762384698,0.12209890233631127,0.1498916314301339,0.6186497160785248,0.2379559580853409,0.023020185002872853,0.4543465012836622,0.860341093060016,0.00723331849375001,0.020994494962498292
31,0.47688482000713595,0.12394305474428406,0.14787220209412932,0.611613851643722,0.23445514207786353,0.02154003895463115,0.4500447172080645,0.862433456046207,0.0007983574733644837,0.020010175570619983
32,0.4745322505696397,0.12670171012450784,0.1460857619455909,0.6034611455999531,0.2279660440134033,0.015377387895394841,0.4462554615796608,0.8655050632088511,0.002175821246387041,0.014223667841601355
33,0.471709160277553,0.13103099630540777,0.14569412668543785,0.596950426970027,0.2216454002595583,0.011050705589131602,0.4431044764287392,0.8692277452150104,0.0012185909340176038,0.00933314915303258
34,0.4669265940295627,0.13585187427000076,0.14770765125730206,0.5920422689719803,0.2122058203594917,0.007408740540711748,0.44119177433680085,0.8734106808895189,0.004548155899895927,0.0055197037021548125
35,0.46235456246791506,0.14084712070250432,0.15026937033773172,0.5894406069998366,0.20345350722501207,0.005561048037148124,0.44052229376004415,0.8778785633642103,0.00432420255933165,0.004442561213734727
36,0.4588165421482643,0.1448877853403249,0.15311629664031476,0.5887976741193562,0.1995411027281465,0.002898963823608389,0.44049022986453273,0.8823647387969931,0.014838869583101719,0.001625572480744378
37,0.4554218276215739,0.1487338771227482,0.1575624891823603,0.5903548862943162,0.20091724798957497,0.004769552344952323,0.44123954662815457,0.886763195000884,0.002050537418532804,0.0054446262177772035
38,0.4550647605195265,0.15066299385768953,0.15888603376455365,0.5981251113712553,0.2065829630245355,0.00020357036593887518,0.44110172501741973,0.8910581665362155,0.013098305059831429,0.005455001461867255
39,0.45444998967019123,0.15250900617522672,0.16171958542065,0.6008951364948047,0.21378767563579273,0.0009362175478663054,0.44052080197064497,0.895197107653257,0.019532385737954593,0.007000502011480345
40,0.45387412909267744,0.15344992219310208,0.16512167812198833,0.6131702082906119,0.22233142029906275,0.00800262564432727,0.4408458978407664,0.8987458163199518,0.02296481996189737,0.010590907364169346
41,0.4515529649607887,0.15313634327155132,0.17026833220290163,0.6255724477112772,0.2278557846230117,0.014049061115985256,0.44188222710322983,0.9017763999946969,0.006070363656512839,0.01659998447749738
42,0.44861666663278876,0.1516945396580683,0.1753506741539006,0.6491485594094257,0.2291581890757354,0.01283637146400034,0.443695238269666,0.9042991809559129,0.030602810448219553,0.01627182647761165
43,0.44288781927777443,0.1507430957278401,0.1826354931292555,0.6757529437796612,0.22170843646017258,0.02544010837288251,0.44657452300998396,0.9060537204247183,0.009859883345428104,0.02334530570362829
44,0.4365387589469073,0.15129373496047166,0.1901731024087722,0.6967042869413395,0.20990780672019874,0.026502072623516185,0.4504597835187805,0.9069955474892104,0.0546757333899166,0.02481235621036953
45,0.42649078476834223,0.15509992449611487,0.20323918346970013,0.7093157040407388,0.19223007541901327,0.04829930117595513,0.4566028706110835,0.9068927145213548,0.04350602697867105,0.03891910954777609
46,0.4152387392431898,0.16299222120808615,0.22036406660280633,0.7093111299893846,0.1732640851973036,0.06431256756466612,0.4665459692174846,0.905680429514475,0.04919656239427405,0.05023029532709679
47,0.40345676600584446,0.17576328574779734,0.24142617058018828,0.7034975562241621,0.15256442338673903,0.08216526598457041,0.4796758192224313,0.9031653762189256,0.03758857174805049,0.06284550108594078
48,0.3902394291443924,0.19100918265934302,0.2665554239268463,0.6923623549465108,0.12585719680631677,0.09522630742548831,0.49687471605644346,0.8993304691172336,0.03958957025577379,0.07058396488140761
49,0.3771026787340005,0.21145598314283956,0.29582171154206416,0.6700203629799987,0.09506550676801942,0.1084230400771706,0.5186589668680249,0.8939457113551661,0.012403065284740469,0.07924124844741307
50,0.36360811154382555,0.23070833532419088,0.3267781845361589,0.6483341148138235,0.0809538649863538,0.1111431871860663,0.5442395215454929,0.8868657877541137,0.011457233352166758,0.08191888251178436
51,0.347702853838439,0.25312950134949785,0.35685861818538084,0.6012346290282942,0.09360019890030095,0.10738490033376002,0.5716266309092164,0.8779008503195901,0.006014538673300245,0.07542807058664663
52,0.32938106767398034,0.2793398625641746,0.3896785066870486,0.5359616457383936,0.09557009090770463,0.10857143211406911,0.5996057548748734,0.8674529053503216,0.18945044385775567,0.05831256979770833
53,0.30939128748163514,0.304818262989214,0.4470394367999541,0.46677719883497526,0.08586444629821445,0.17400861563222392,0.6343462840047722,0.8550548790872898,0.21980609954698657,0.08583210395415396
54,0.29303859127252546,0.32611605737985366,0.5325020524424737,0.41348064340743124,0.06592228351305442,0.24245113143490923,0.6854042360908366,0.8410436580911265,0.057502607584394516,0.12568694759572965
55,0.28692095926330285,0.33067400346295583,0.6073113115940777,0.3771470794204622,0.04080002600917781,0.2129625383946192,0.7429472429116365,0.8253965802624983,0.23419813356620856,0.10913795001031767
56,0.28340121105966243,0.32201595911405356,0.6579651054900272,0.3678793600940547,0.027921776906836476,0.14746612954953195,0.7897222518501784,0.8079921111172266,0.19480881979099238,0.05745921023297432
57,0.282792431954874,0.30891923402589083,0.683955268705568,0.3579754372466019,0.025800059745164843,0.09851424228305412,0.8203313316910227,0.7889463642181416,0.034901857361006705,0.033399834735375
58,0.2856665629439934,0.295658779403261,0.6989886855658527,0.3401106838043698,0.03223887968752032,0.10397498600674307,0.8369539572504987,0.7684114270896394,0.12310289131187264,0.04522578870012513
59,0.2917738494957402,0.28782194551293705,0.7104526487893748,0.31101029691304727,0.05007565006153149,0.1235098170154754,0.8455824577370054,0.7472395243918208,0.19487921070875275,0.06270905619792225
60,0.30253548469878816,0.2846022078528174,0.7403314430430726,0.2603546411674245,0.08545267653248968,0.16930268410716034,0.85652543281298,0.7264026162597372,0.10500807372475873,0.06755990188699895
61,0.31318872639281214,0.29089555247542637,0.7978485529817951,0.19713542453841862,0.14894609567256692,0.20824153378823182,0.8804679439913939,0.7065127338780007,0.01015419748616026,0.05478864232267622
62,0.3213301070329995,0.31851530048322174,0.8680585700019483,0.12304410858598193,0.2589306291280164,0.23288616285576738,0.9154239456655431,0.6874134415645645,0.1064606077666132,0.0564692594667422
63,0.32806155488488375,0.3629294405260126,0.9283682302425555,0.040366808019316615,0.38968873637851054,0.27068830330498034,0.9536026548287392,0.6671916897886588,0.3540060541238182,0.09981967558678775
64,0.3258150827810065,0.4204724897673274,0.9593975879458286,0.0,0.49825909389145706,0.3309781221132101,0.984640889955083,0.643660980425675,0.3931520350883358,0.1743520289277864
65,0.3158865833691832,0.4862902433219636,0.9668150506891319,0.10194169781360778,0.5332969826393529,0.41229205785429135,0.9999999879976751,0.6148649259900794,0.271833867427152,0.27603743677435616
66,0.29555133296290736,0.504650565445124,0.9672653067402689,0.25163263657303686,0.4986081914779861,0.48319458295757306,0.9997437709146882,0.5803003687641706,0.1991334552621034,0.3724225670683655
67,0.2773185004737988,0.47075408189379137,0.9991767745499406,0.3759952815787876,0.4110980299325262,0.5006299888189676,0.9887918885867236,0.5416600997883757,0.3096278173327373,0.3654870164606666
68,0.23257815001814436,0.4317301763042856,0.9999999911553649,0.4864370112169503,0.37684868788284265,0.4774342713703815,0.959986660054323,0.5004821096588058,0.22227994138411047,0.339051734924674
69,0.16626376156725028,0.3713686760885743,0.9597057265210892,0.5921274294006242,0.554243405224515,0.471218046839269,0.9035797040694198,0.4578582522089698,0.2691365906868585,0.3486360517871123
70,0.09606998179662932,0.2636149217201438,0.8691505363744519,0.6760967401833818,0.7482579403108421,0.5170918201497733,0.8259978030714964,0.41439242627520745,0.2368925733379238,0.40748152448402075
71,0.05456570168776536,0.10918137267541622,0.7685869370072825,0.7434230670980768,0.8995486098020437,0.5664868430070309,0.744563292054902,0.3705989054681423,0.09194680484807126,0.46429062583467845
72,0.04356702903703537,0.0,0.7258033400095991,0.8006019483144664,0.9746806999795061,0.5885949579992579,0.6816193497795849,0.326826723122759,0.17193322765307473,0.5002637143889997
73,0.04401942389073096,0.06529167415067226,0.7480374803840629,0.8703061662365636,0.999999940688898,0.5780796674900386,0.6517365552625102,0.2834116849320797,0.036316399502446514,0.4952522012409876
74,0.04751052770831158,0.1883453537374598,0.7954530209981351,0.9336997618840669,0.9635857424844849,0.5958689884540893,0.6545877594129688,0.24073437428788905,0.1870771750862006,0.43227872475771606
75,0.040802593364564814,0.3783690266523637,0.8252375643077531,0.9425317166464217,0.8400105218369063,0.659019985517248,0.6781545209157767,0.19935388472795543,0.9999999999264861,0.315588584889289
76,0.016583729153055133,0.5922234448830589,0.8345202803868256,0.8880269911853568,0.6768172916001437,0.7884475883812496,0.7138949399597665,0.16010173579802967,0.04344142053515258,0.21087995426771422
77,0.0,0.7944999535961552,0.8335156879238607,0.7976766876888487,0.539621950825673,0.8241834543265741,0.7518390056658643,0.12379023548524873,0.6462906716724686,0.30836470062153504
78,0.03632300359067116,0.9364284454847784,0.8463519930324269,0.6884875054558943,0.398216061546331,0.8234368296356656,0.7817251905741589,0.09083731116946381,0.0671613482938856,0.49321421715417396
79,0.13154689613935347,0.999999994504997,0.8468609588017185,0.5831253760486654,0.18561443768880895,0.8580289214755076,0.7929277578011618,0.06175067738799542,0.9809075620915774,0.6382790580517446
80,0.24525308667008822,0.9884255130498243,0.7575633381692666,0.4662890789314457,0.10923707434109306,0.8460027411403687,0.7532250541188952,0.03733836352335815,0.7081797642391947,0.7102627359919634
81,0.3445303327317208,0.9233447101773015,0.5798363610502696,0.29205677236161237,0.0,0.8664854287457356,0.6311367113829349,0.01845532043355666,0.05321558658510305,0.7727909475541958
82,0.45763993389150354,0.794945093395529,0.3632889300481498,0.1220089899591172,0.057524255138096225,0.9493407297025971,0.4408308930061019,0.005790854324048793,0.06817612098339462,0.8903699369253473
83,0.5887677238710912,0.6383500915442183,0.17040620488849234,0.15568980410692257,0.26338605596911585,0.9999999996104942,0.23793282815634043,0.0,0.7193347042380288,0.9999999987938911
84,0.7322116980674519,0.5431051292752045,0.045180124965656224,0.1890403989054103,0.45223465569848614,0.9289283886325431,0.08506548381952254,0.0012258859028500299,0.9097415537044166,0.9795233549254427
85,0.8919545558982902,0.44298281218802704,0.0,0.331721928480035,0.6827838519475095,0.7970158075345475,0.008856087646212055,0.009371782758146797,0.8733556495201447,0.8673728920792787
86,0.9999999981321093,0.35284572479888926,0.04512306929287832,0.4816708580330759,0.9721988821371403,0.6667209408713141,0.0,0.02463959321929084,0.8733556495201447,0.7329653290199636
