Frame,Center of Mass distance,Symmetry,Grounding,Arm fold,Leg fold,Kinetic Energy,Potential energy,Bone length coherence,Torque,Center velocity
1,0.4552581255307807,0.6147514703572574,0.7366265080402622,0.7914079384987599,0.4556463593064121,0.3648309709224109,0.3022895458566638,0.3929710099253035,0.024268952248360193,0.44091010016813337
2,0.5299502844179863,0.5556090545541565,0.8355741830532946,0.7551002105847398,0.5019849313489902,0.3648309709224109,0.3022895458566638,0.4700657798707023,0.024268952248360193,0.44091010016813337
3,0.5948453523555952,0.4944666837162182,0.9208619726220241,0.7077098890935737,0.568119137444843,0.3964496611164549,0.24960351532431546,0.5660466233864374,0.03478187591194815,0.40602361467610626
4,0.6418595481913812,0.43484064753264845,0.9790146073423481,0.6712278572331598,0.6433223457186767,0.387980724011854,0.2096591504609307,0.6388157983622643,0.00038738331744920466,0.35629326005223244
5,0.6610790001520543,0.38448396044218813,0.9999998644215903,0.6682998556441299,0.7233115283410194,0.4274979123391652,0.18428073870854225,0.666598649919352,0.13106974648372302,0.32970371220394923
6,0.655959573603,0.34474862852625643,0.9861150933860804,0.698309789007654,0.80216719089707,0.5287220398338833,0.17581654435362484,0.6556196431521141,0.25972749297952896,0.3840632349240935
7,0.6540619138728743,0.3028852369741237,0.9596174452325489,0.7534413518020718,0.8525080530264695,0.697158461437204,0.18599497269704682,0.6094935170025293,0.21258909220026545,0.523899811360231
8,0.6580956658758308,0.28057287564433536,0.9403771075009825,0.807370138866133,0.8475758675823141,0.5117320127085505,0.21485335987841997,0.5479165419477134,0.6414630466488427,0.5190070093489465
9,0.6470693413188139,0.2877167863816333,0.913931356022346,0.8364077006341417,0.8179573255825443,0.10940637501430672,0.25502974204323925,0.48663013433485003,0.19615704001015755,0.2238571091536378
10,0.6214866880529204,0.31457023461765254,0.8828265309271102,0.8359916131877742,0.7834736157105913,0.20589051056766233,0.2957080695694637,0.4456322679006007,0.34663730381024455,0.16834533394025597
11,0.5923285876680964,0.35372973140352726,0.8640543976231406,0.8312465105319976,0.7467968772861311,0.4658138893618936,0.32892797647412786,0.41555106343007137,0.11843344573246495,0.47338673435977485
12,0.5678935070519531,0.40050477819287894,0.8452451142404224,0.8412437552037874,0.6688984773312442,0.4726672323896944,0.3534586919675102,0.37358256819976376,0.01477542368328248,0.48283154855027116
13,0.5543217297248076,0.45591887724074487,0.825911759517788,0.859911153594499,0.5619280892608735,0.4771370899960423,0.3694819041244196,0.3034896623716591,0.1573985125017437,0.26912308617151115
14,0.5588312527646428,0.5023733135787047,0.8288253466099404,0.8216605504461807,0.4640765170940298,0.399937712684764,0.3702495752296773,0.22353769886701622,0.1798958621966771,0.21668922291767137
15,0.5882723984397606,0.5051326621556771,0.8619484702583052,0.6836321450358979,0.38243927171813524,0.335279214306473,0.37043780539269733,0.15898447336861388,0.16084816653484654,0.08346124667794524
16,0.6281922867276984,0.48091268435172946,0.9105770725761746,0.47726768030494476,0.3274844484294378,0.4755910868126054,0.3861938165981239,0.12013379037736893,0.11463575345703687,0.15163094807009808
17,0.6529478244542103,0.4565542938612216,0.9444811986434404,0.2752030101083635,0.30512359505158204,0.4051205130152195,0.41146479725238394,0.10296705220598862,0.25816532449006435,0.1223248376582212
18,0.648902921512016,0.4410843856976116,0.9423083444191791,0.1502772341607619,0.3036141406309486,0.11764104254052934,0.4442472185640185,0.09268342115148255,0.08503594251393479,0.07314634711211773
19,0.6156854007546498,0.4399543073874177,0.9045468491064924,0.11784959446193587,0.32182975750725534,0.15800671309292763,0.47738638445839127,0.07350753988604397,0.0731369513142027,0.12768505942585479
20,0.585278038468927,0.45702976215944696,0.8659022595554414,0.1551519242931549,0.3459621305487285,0.28543794717764315,0.488673152898298,0.041301229712574467,0.14475896456951035,0.2955018553105044
21,0.5614031519960287,0.4836482221016477,0.8332822217063246,0.1991155902719602,0.35571153283942225,0.1325625919168438,0.4782908725102989,0.011682426345009999,0.23170879859807766,0.26558959565309
22,0.5365874754132839,0.5012597156528188,0.8137826841886742,0.20562670505376557,0.3781630272791146,0.26596314996671294,0.4812612085395156,0.0,0.130948203659113,0.27508500627963184
23,0.5087191172383445,0.5175498000234486,0.7939590051442236,0.20493875514903462,0.41739633047520835,0.4230080846395346,0.5133945632769208,0.015669095757242915,0.039840900372656037,0.3622020422821248
24,0.4556129930385452,0.5460859234514108,0.7403644865745865,0.24521134023918698,0.4630564787501185,0.3314217010506549,0.5716659156095699,0.04582293927194545,0.10957927172767779,0.326225945123584
25,0.38819486447748824,0.5942764423782033,0.6568108399948094,0.342335687121776,0.499481774106164,0.270874689121783,0.6327565253581158,0.08212337425012683,0.19032308232794493,0.34638158201675556
26,0.31076807844035603,0.6653584025339891,0.5424926743846771,0.49352544609436483,0.5103623252671937,0.4367326761771894,0.6803973172430267,0.11481795803515318,0.1073436629112211,0.4688078821383153
27,0.26493585569443023,0.7359356682333441,0.4494368317082751,0.6776378772733682,0.45681967926125816,0.5693716473103609,0.7175416215038029,0.13782306022059587,0.2955223335957461,0.50428363100921
28,0.249962071118311,0.7866298417345119,0.39560863630741905,0.8259114917064252,0.3489298564252547,0.4321449970518055,0.738400324815078,0.15290442302244006,0.3948613173417639,0.41376604287761276
29,0.2600205468181119,0.8026894822359273,0.3837847020831471,0.8558833074016176,0.2647904816634373,0.16389372241797712,0.7360456813162772,0.17242907378138372,0.2973834846507335,0.18591556320355165
30,0.3028660857457593,0.7845470908624022,0.4405627838897411,0.7688644874488693,0.2518077254253827,0.3672214127053025,0.7000436538018776,0.2059465357744312,0.019809154873734722,0.09707216595847055
31,0.3458804515620013,0.7613280496594731,0.5117576485466098,0.6504451662033592,0.2739670894100233,0.37856781069097506,0.6355474391790024,0.2530172023873029,0.3885410978403659,0.17807182896477097
32,0.357149166093919,0.745619842043371,0.535159645863277,0.5780273921683206,0.2991388647028181,0.07129993210428164,0.5754490279582277,0.30190195684346466,0.42227828215820845,0.03490324369009505
33,0.33515789302164173,0.7426181574187327,0.4998503393364421,0.5752482773049059,0.3046434034190881,0.3275710068101083,0.5494898473103551,0.34047784538837195,0.17965223091443666,0.26101181536866996
34,0.326427913915144,0.7449422704462257,0.47692703921770585,0.6337737468659072,0.28503153082492905,0.2636837291455852,0.5501853061962768,0.3656612353031093,0.42600704983849963,0.22159958314767667
35,0.3299841446751434,0.7482559980594697,0.4803343536923218,0.7009589724938214,0.2745968061275119,0.0,0.5636079483144766,0.3874793214041539,0.3039377114465496,0.019692763663103866
36,0.34516489575860865,0.7449755405079076,0.5041285537487646,0.7278964274611001,0.28629385606060687,0.24947453952375684,0.5860162937572639,0.41528827488098063,0.05263165409255845,0.15233166824603048
37,0.3687315757735343,0.7363706875907807,0.541759314814859,0.7092872139637734,0.3103521074428915,0.21535782823424982,0.6033392064740037,0.4478215098314098,0.20811111935055157,0.17347907669078147
38,0.36064154170761714,0.7354987201248213,0.5417048658444785,0.6844828220931832,0.3380996330063074,0.040367366771822503,0.6177956929757241,0.4774303443759985,0.49306940465553095,0.00634885345409322
39,0.32254001022400136,0.7411242322346812,0.5046846705764556,0.6482085829113632,0.38621796213216697,0.39181005419676557,0.6351534390337303,0.4968509568303038,0.09729637137607117,0.2319641397407137
40,0.2937675141469451,0.7259729766051497,0.4787834088016294,0.5697570437454258,0.4788520118449722,0.4668738021907168,0.6514172962509052,0.5053933814847421,0.3690575491796573,0.15101063689563843
41,0.2752907774814806,0.684390903318104,0.4685149568822482,0.42197263108637667,0.5975193507818835,0.28442477719121284,0.6832100892914531,0.5135591588374936,0.1679966727301261,0.23220699574093034
42,0.2556991740950099,0.6331802224604453,0.4503550909066768,0.25484832624558496,0.6888189236273299,0.41328135069094424,0.7398197142757637,0.5270176750983648,0.12377762483695602,0.336879120477973
43,0.2561590466950648,0.5794237328085848,0.4413406668363812,0.12379768724339044,0.7075171344504706,0.32748584437939565,0.7895527046725108,0.5446116685431959,0.029541240903860684,0.34529109277002556
44,0.2526455944929677,0.5443190582550539,0.40697060504861615,0.07313513023137552,0.6690740920082976,0.26966402671901635,0.8153418183052137,0.5588410638149536,0.11788714122932945,0.09458226003703717
45,0.28422527140763326,0.5092747319375514,0.43010262622047735,0.09961369691924268,0.6239020009248434,0.2919225526417359,0.8049387885552,0.5653547968793322,0.008930652336997623,0.1671403580504911
46,0.34592147148510316,0.46766900004802264,0.5358371385207759,0.1538363217743461,0.6569159759145063,0.273230526425017,0.7468355026405794,0.5682564494207526,0.19333692410671544,0.38693601030419666
47,0.4112095552299278,0.4268155487365081,0.6612342516614813,0.19996263495467168,0.7175995898684768,0.4448525794396026,0.6718347908833341,0.575164726519829,0.18319768325107166,0.44719371761770904
48,0.5033823900919061,0.3715496967478582,0.8054276031190839,0.2540097711510137,0.7542825054011347,0.566772240260955,0.5938865524552728,0.5847714279563389,0.1485623981368634,0.6749093521760605
49,0.5995099449721147,0.3191881770334374,0.9308213131991391,0.345009036525577,0.7581706824721034,0.4622585795196874,0.5141597890132727,0.5929665722415417,0.03983432221687659,0.63222616729132
50,0.6874181046507626,0.2822305744680867,0.9645280617487744,0.50850371150489,0.728720715154046,0.5166391004984116,0.43265296525495855,0.5892399505040953,0.48398244892447007,0.5268702353949473
51,0.7773249870518913,0.2528598597040565,0.8756480580768439,0.7377879003322431,0.671266269064609,0.8995140451904478,0.3407859238126004,0.5663295042724551,0.17869914317600072,0.6815433337747487
52,0.8790452450503774,0.2138502112867075,0.7835833568144067,0.9243629593300094,0.6574501849028214,0.9388805280231918,0.23062105807363792,0.5318105286611784,0.9999999999324922,0.7296234762558248
53,0.960110241134625,0.166574176905447,0.6977496595999295,0.984733787908875,0.6974776723358586,0.3555727634343391,0.10696264337774312,0.4997215557924057,0.12546264209526303,0.3576552676150852
54,0.9999999936899413,0.09490458668821476,0.6497775643988924,0.9317035879592466,0.7770984706798293,0.4210552657649421,0.018408678566738577,0.4762108071383076,0.11756351615356139,0.36199213198756564
55,0.9862984742868838,0.04399369704910645,0.6537265326934425,0.8366254597356363,0.8553692410082421,0.3762322843821004,0.0,0.4592239779222216,0.13350096981163545,0.2576534810484772
56,0.9445312507031512,0.007620615416305893,0.6937255403827187,0.7949282335060093,0.9366383299412576,0.36007651188747664,0.03690913307165596,0.4433759728859667,0.1017458803266856,0.2180274378112878
57,0.89700007766915,0.0,0.7575834062807629,0.8269943789534513,0.9999998760802511,0.4490724228722691,0.09360966630996716,0.42464019717530954,0.12250874479881654,0.2660516515031404
58,0.8739555245731975,0.024048716231010677,0.8093666458200753,0.9220037698346054,0.9902088692824261,0.4722627291439063,0.1440585208069546,0.40083773387753385,0.33803570361485297,0.35991164721252067
59,0.8749006302053383,0.05429314017139222,0.824648940428695,0.9999998408969677,0.962061174780896,0.17547508402303735,0.17883528892979245,0.3745982855023049,0.2727124464398062,0.14788543590102363
60,0.8645102363505677,0.09136256179580855,0.8311876378769851,0.9851480644202328,0.943661440646485,0.37880106772819977,0.19806657540904848,0.35245135519771187,0.40980290922063406,0.36661742422474014
61,0.8627135620339886,0.14597758420935364,0.8140055846611698,0.901273465709684,0.9072201185905062,0.7457308139094996,0.19501841618610846,0.33590843755005784,0.18014871994819812,0.7945212836208927
62,0.8110328627263973,0.24311522902698143,0.845812291015223,0.7825381776961807,0.8211290843579504,0.9999999981577609,0.18978423923208967,0.32137707090136214,0.37052069582069813,0.9999999927334327
63,0.7475104240126231,0.337712322553915,0.912315469390939,0.653881180285241,0.6983061542378654,0.7559628450890544,0.21395883566957305,0.30121487239566397,0.40022223939588103,0.6930308252254189
64,0.7185454044482937,0.4030472840469054,0.9536150134248325,0.5062829428338618,0.5618268733970895,0.5020507729810402,0.23688872282327816,0.2773296665083727,0.20446681633253977,0.4691851434637446
65,0.7025680396962407,0.4286002956017812,0.9766718836740343,0.34660764615101297,0.4491873461140364,0.6210578313538496,0.2539657043508053,0.25918217619023365,0.02253946006133458,0.36378281783456284
66,0.7000065763697595,0.42842730592058176,0.9801027359848039,0.19483641369998178,0.3785701241279894,0.624369683509409,0.29303377145832976,0.2496343033141191,0.25370561214079745,0.20191273652630864
67,0.6756629243330029,0.43011920845747165,0.9999108176679465,0.0670315579015149,0.3513312058098584,0.3780733370355654,0.3552044912570697,0.24502263646983563,0.3428392725848196,0.09442313518289835
68,0.6313334156772109,0.44105780618260704,0.953314409734189,0.014287762473111238,0.3619585698433582,0.116287270115557,0.41736087442840014,0.241027266203538,0.09497662680337304,0.0642305729680361
69,0.5848595113273833,0.46906755048440085,0.8929707711328086,0.04055148985175333,0.3853715731088963,0.2277852446760157,0.45048422020446954,0.23509855645196462,0.0,0.3070802712228666
70,0.5516952393791146,0.5077481299533254,0.8414887024609168,0.11642516600799878,0.3844069833845642,0.23592590694449955,0.45790798298612256,0.22823019563438907,0.132738071399316,0.36147692368977635
71,0.4954341300990901,0.5616634762773673,0.7732028874820022,0.1795635336482176,0.37338093762265495,0.2849568049867275,0.4732519374710928,0.22438539558752402,0.2163610359754569,0.39786441935009303
72,0.432730497782684,0.6092439643795408,0.7049165053263121,0.20744115210555783,0.3848330264731751,0.4313916721909385,0.5223436902593904,0.22667266779739417,0.05686395938153081,0.4611231953762157
73,0.36249196677951956,0.6603752275519188,0.6242248327521803,0.2530036655417945,0.4061387120175789,0.40301992810974147,0.5957182643160823,0.23555059755395488,0.13660331775959442,0.4246563165141891
74,0.27961578006154264,0.7194970743545411,0.5152662040755273,0.35366840818531253,0.4150243722242694,0.3361257467517268,0.6815055338411576,0.24663870896485457,0.2539980989347018,0.28848691834410517
75,0.1978284256991731,0.7965624319609943,0.37585528718304473,0.5184873878667097,0.3699874130136023,0.5368723287215588,0.7670842517218281,0.25638815205758186,0.005276553617292579,0.4505387455027301
76,0.15606462916664116,0.8628065805056249,0.26710424520596854,0.7233010039086615,0.2521482835464258,0.6241874976268628,0.8222262183532534,0.26235492499948,0.4880864727899427,0.43326899010643294
77,0.15781633739188183,0.8898178952652516,0.2335341862590599,0.8318441217714845,0.137870069953808,0.35611712510519855,0.8369098151926376,0.266197515868646,0.015763021470156426,0.3947531975751483
78,0.19379596722183617,0.8812926055273872,0.2743663766305169,0.7839840504595078,0.09022517205833878,0.2946591379178379,0.8005965362630992,0.2759539702698515,0.39966638070324056,0.1576145836365789
79,0.2619395159507076,0.8504280327383684,0.3821413073781621,0.6625371515551916,0.10749577866431745,0.5167647695778542,0.704873669931621,0.2945488591791026,0.3479514604712718,0.305466843890607
80,0.32027017878832487,0.8196513296270823,0.477199284069611,0.5715584646934045,0.154776954698929,0.27826304713125943,0.592933135014234,0.31814184235239923,0.02768322141276564,0.20976890876533047
81,0.3242507460290241,0.8082133337036246,0.48931077691870684,0.5503194061011625,0.20631181252347366,0.23951342569498932,0.5255922506361331,0.3401657283394921,0.22208395120945737,0.10861876562693906
82,0.3039230181893852,0.818611441223597,0.4511942289449948,0.6126435250992549,0.21061360529367856,0.4198272954129653,0.5144117775350822,0.3566158482169356,0.48143433564486837,0.274613649027488
83,0.28526338989614003,0.8350630232415687,0.4170567096348977,0.7246279419547942,0.19399868396100514,0.16531185430457646,0.5411161388668964,0.3692808477013347,0.1015007123889647,0.10655252781965
84,0.2812622100514011,0.8437981868570078,0.41766727543297066,0.801851292031009,0.20005783762795484,0.14428337332525204,0.5848074488951133,0.3842813964228418,0.19413860801645114,0.043580693351997504
85,0.3059023482501944,0.8333548526734643,0.4575800722524763,0.7822081856530083,0.2249434883585943,0.3006328389042365,0.614709120389566,0.40398599031905014,0.15951285249547822,0.14148657130237266
86,0.3244737848217729,0.8179925391045143,0.4909986950005137,0.7036024588997634,0.24817627233117787,0.16022693166551236,0.631957337366676,0.4252721020270043,0.2984651295350996,0.19118445192345412
87,0.3154921600663427,0.8026805862790825,0.48567659173417094,0.6136761682466214,0.2975053962238614,0.29281882146048277,0.6563891572828294,0.4433430985990474,0.2800038523631598,0.08754741252036667
88,0.2996124406313992,0.7770121294997961,0.4749657419304443,0.5004296684729616,0.3883120279456356,0.4975130811245803,0.6821232299115344,0.45633875725349166,0.43669404098766534,0.12133628539055762
89,0.290495253786733,0.7272237896459006,0.4791001770303549,0.36333330302417166,0.522229531345402,0.3255699166232626,0.7089599160431467,0.468035531142906,0.07374778364972698,0.1890940125006571
90,0.27902433701626034,0.6654096184338004,0.4779292405787789,0.21000673963551683,0.6513826157969669,0.4115188273286216,0.7484229136147845,0.4818499515166373,0.04186100168619028,0.3129662699034971
91,0.27838246449440684,0.5999818614384201,0.47846947645677707,0.06773864942324351,0.705499068642802,0.3724528922958008,0.7915717798809053,0.4970752063537005,0.00661146292989948,0.3080005960060806
92,0.28240457965054666,0.5481949352831026,0.45563947691749523,0.0,0.6781391337540839,0.3298249073858978,0.8189491130905265,0.510884235307059,0.04379698845074091,0.12641531372423534
93,0.3009894944920095,0.509845207781791,0.4534073527202674,0.011255517838144016,0.626356894170453,0.2939207282641652,0.8168625558986227,0.521671227755794,0.05265306555759746,0.09656999670685079
94,0.35517667206311326,0.47330068262897934,0.5401879515602738,0.04898175246227516,0.6319465547255059,0.21785946857653798,0.7702691859598884,0.5309341103345254,0.2659519945713509,0.30921053712724494
95,0.4178727341759392,0.44451714055542907,0.6709122725582944,0.08512423561377744,0.7127162396463029,0.4348497788168939,0.6846120186420771,0.5413791857358543,0.01758147612318726,0.3292167766075821
96,0.4886147921265754,0.41100313464122645,0.79659722791221,0.11986748372028475,0.7726327806942326,0.47350615000950685,0.5929573500879712,0.5535352373589035,0.10870301540752433,0.41401580645580494
97,0.5711688580689442,0.37459266440792216,0.9081779148187674,0.1801070062934114,0.7810331055150466,0.3740503558815532,0.5112215972553845,0.5646422706406969,0.03346998014294968,0.44669423859448804
98,0.6438713327443004,0.3517391234682821,0.9948827955593375,0.30833841667396655,0.7499848068829833,0.3610452396857069,0.4350635371253956,0.5702475725931815,0.29391179532211276,0.3752263358025047
99,0.6959883457482172,0.34474079375475886,0.9571275391911742,0.5026769710987928,0.6686719610657869,0.6673705038232203,0.3653283795667265,0.5662680638295658,0.1734405936070163,0.5488759838686398
100,0.7694332478021831,0.3241290240526472,0.8950165777595156,0.681330157801343,0.6079861378517862,0.7158810174621929,0.2866580877453226,0.5541432740714743,0.5924246408279562,0.5701256061116466
101,0.8364886942908374,0.28517725689137513,0.8322335118497183,0.770871194603762,0.6104862353425904,0.3205707011863199,0.19921598659531972,0.5413661765439601,0.0010714799904862256,0.316026761162013
