Frame,Center of Mass distance,Symmetry,Grounding,Arm fold,Leg fold,Kinetic Energy,Potential energy,Bone length coherence,Torque,Center velocity
1,0.1916445630204897,0.5641972529557998,0.9623750923524462,0.1619882646312974,0.9100523203365238,0.058008891065617595,0.7630907665868024,0.10958987818652921,0.012281917905377953,0.02838633452855984
2,0.19058157562737438,0.5709893916975286,0.9649627354694493,0.18534235978995725,0.9122707455074239,0.058008891065617595,0.7630907665868024,0.0922917419179875,0.012281917905377953,0.02838633452855984
3,0.18934523594663782,0.5757342488360079,0.9689006712503586,0.20326746931878734,0.9164878203859201,0.05394060312475839,0.7554404315810214,0.07225587612720541,0.013223029028508795,0.02579875510915932
4,0.18616614236633822,0.5758635463420637,0.9741422446971661,0.21493468611259783,0.9239244137747045,0.045996938061254544,0.7461088700307782,0.0550588830194456,0.01983404901145658,0.029770457817791026
5,0.18296387131038772,0.5743142157806865,0.9795986655493147,0.22397423935206795,0.9314666358500492,0.039773160416173604,0.7363785820723054,0.03925599717329641,0.02022565721656416,0.029290597802728437
6,0.17914486110850344,0.5712701125759395,0.9850536864259474,0.2310826687511323,0.9403217733429545,0.03483735336639596,0.7269588626221142,0.026664674952164933,0.027462637625086033,0.02899790927728407
7,0.17460594988788203,0.5677465009888253,0.9901093887048366,0.23656176271210974,0.9485867845056987,0.03078401746234064,0.7178332385863045,0.01648383193173551,0.05513840712923169,0.030416017791587785
8,0.17147361132737432,0.5650817465730307,0.9930225749656503,0.24100172779975157,0.9557686756235928,0.019138776948379715,0.7105084051082939,0.008986844306577502,0.017338653943262058,0.017950022477575184
9,0.17039464451032474,0.5618775871979192,0.9963261590499894,0.24487506450196828,0.9589814950130926,0.01658606891181686,0.7051533878751417,0.003690310387694465,0.01134826511377297,0.010669032028051561
10,0.1695067606200653,0.5582049664955363,0.9999999878219388,0.24866239807769788,0.9598023677239285,0.019981370455508282,0.7002546613079479,0.0009540697652792379,0.01975186915451165,0.019336610598278185
11,0.16881451603787237,0.5561947585987241,0.9964688263223346,0.25169736083967803,0.9603765283293367,0.018062717369415573,0.6956846332702565,0.0,0.045866186332276924,0.011573582869500998
12,0.16789833345715818,0.5558601450478253,0.9944747728240885,0.2543655499144629,0.9628800083578523,0.011622452380813074,0.6919348019936873,0.0005626377154771013,0.040943801366227925,0.0023251758888667698
13,0.16592601472811194,0.5543236045137659,0.9906373748197655,0.256979067917402,0.9646196805106688,0.02350242657130262,0.6882502160500915,0.0021810980218175176,0.046987800085974064,0.01864565071158347
14,0.16429713878739094,0.5550635757836541,0.9896679731689048,0.25955599572045857,0.9655499965753713,0.015617987773773035,0.6853434339479936,0.004836627045715998,0.013033652438814549,0.00997645877601174
15,0.1626892168442651,0.5557729642592073,0.9880468340790202,0.26130106775598344,0.965298867182768,0.0185544681762016,0.6837027281743829,0.008285123206416455,0.01573720141552843,0.012842033436996013
16,0.16191100440835307,0.5565889717701712,0.9869784574149395,0.2610321972630349,0.9636988301866672,0.018520570367146407,0.6822934181689273,0.012212876776388784,0.011352770537943046,0.011878387782277304
17,0.16060609028682302,0.5574037861705953,0.987651585177544,0.25670849091032905,0.9625218000886722,0.021508481593400373,0.6822548888979948,0.01637082946906007,0.011470260899498383,0.0029677980952355163
18,0.15811277025189066,0.5560806381183923,0.9860568502770414,0.24957932092532922,0.9627214786091437,0.029326182349687258,0.6823139895765712,0.020590892589278962,0.011385234382242593,0.013186529490849896
19,0.15547186459451093,0.555815287521357,0.9867845770847673,0.24177845125197128,0.963515920607933,0.02939813295641317,0.682661074859932,0.024931666227568126,0.037462976702005886,0.003641844871251581
20,0.15370227798817268,0.5535727172316992,0.9867101179218616,0.2342865787256159,0.9644101497097334,0.026866502313369442,0.6834264000222745,0.02964880727429449,0.02534386909123868,0.004277586561535585
21,0.1525585109272116,0.550549444190344,0.9878122567861753,0.22843642680361528,0.9656426066593586,0.02342268403848887,0.6843142260281525,0.03475359844605765,0.023345386393700155,0.011073519435324936
22,0.15134951187553028,0.5489228805314275,0.991417551872984,0.22508881011576776,0.9671517093482073,0.02638966416922305,0.6872001625207468,0.04044579158979088,0.025115894178311126,0.02761248372935551
23,0.15020012585489148,0.547401613754835,0.9918537907552639,0.22391995593143293,0.9655286471808502,0.02192587199272389,0.6889224070207539,0.04622605178439305,0.01219788904440608,0.013910887195135042
24,0.1527699105507877,0.5461051418853788,0.9958797296482563,0.22486059788514498,0.9610955291038249,0.023193565367844313,0.6908605830235249,0.05234167575164855,0.013520913715923486,0.01981265874595242
25,0.15643176752368118,0.5470128967576023,0.9992420801466948,0.22542241217259645,0.9563441740969459,0.02695188432329225,0.6953484158520218,0.05851599150413034,0.06836464082671447,0.031885711596040756
26,0.15801947680397865,0.5470353638477611,0.9978281374331688,0.2254140044999608,0.952618832241452,0.011713118666833937,0.6980268132285868,0.06425629441595816,0.01530813449223106,0.013182673862224915
27,0.15735112282971248,0.545980960899285,0.9985056604677419,0.22593631564234332,0.9514070917155787,0.009804452121704362,0.6979896397727567,0.06958227881328677,0.012286538829233853,0.0013474175857587554
28,0.1582653298780185,0.5464553926463611,0.9958053030429208,0.22638628173958958,0.9493485884627781,0.009484970279379118,0.6991909097305732,0.07430127051401433,0.01426164216973971,0.00793288710520592
29,0.1594971226418557,0.5479250239086099,0.9923186802992654,0.22708142183130456,0.9477987035461476,0.014411517970873004,0.7027152267485317,0.07851986576496496,0.014498423922257224,0.01754701337810587
30,0.16060910739274153,0.5495767503645421,0.988155739151132,0.2270556162992121,0.9475549586816654,0.018408748560248253,0.7071961349799138,0.08221971771388256,0.05946902378668243,0.014451495692944573
31,0.1607998355670139,0.5498211459080985,0.9863332640475134,0.22722177206330718,0.9480772771895638,0.008068494691675216,0.7110206311428562,0.08532620607031399,0.06839065341603318,0.0021609366931150853
32,0.16361958891984102,0.5519450951776769,0.9819244481296975,0.22704043277885413,0.9469722925307291,0.028800358607591673,0.7146286153771095,0.08790808741200687,0.012078867013932829,0.021506526373289717
33,0.1694626065651838,0.553928916715134,0.9848681408337305,0.22696166323716443,0.9369796545581922,0.03725275257314657,0.7150984509874043,0.08965003647212934,0.02364884272721368,0.02987784756164961
34,0.18065052692178213,0.5579367836316635,0.9874973599678001,0.23132124625485445,0.9218093464308125,0.0540094495768147,0.7115207142821314,0.0909553644733492,0.0713903735293275,0.050199048558388276
35,0.1858009209865569,0.558137164515284,0.9945336043533279,0.23199019712246266,0.9107762524591454,0.06468426482566525,0.7045172102340052,0.09210155339036298,0.01466228998429934,0.04762462378325318
36,0.18615511293937187,0.5522774478001049,0.9986039517719888,0.21578461925466005,0.9019497010729919,0.06401628335074262,0.6923466423635412,0.09342537011263138,0.04052304293497333,0.03229587271003292
37,0.18603196259442148,0.5404712731901163,0.9913225488833212,0.23604508927087353,0.8975513310831446,0.061126767420241146,0.6793757524894667,0.09499243572839718,0.037339648296216645,0.03875802555158136
38,0.1846789274852592,0.5251058858681937,0.9857309815575295,0.28570540968192565,0.8972311673949382,0.056054036247813355,0.6678895568181,0.09666180243781468,0.03990438504395687,0.03181239023982991
39,0.1795591896681818,0.507148431980563,0.9808642108581513,0.3309170365365232,0.9043299275556236,0.05439523529724805,0.6572582133271485,0.0990458604924359,0.012440834420345605,0.019256140742237048
40,0.17090415466356684,0.48986787159026246,0.9748166747625762,0.3685297531170094,0.9198463200511842,0.06476734279538926,0.6465250379384826,0.1028381013286556,0.01943803937998203,0.02174120590566512
41,0.1652638002430215,0.4784150140860872,0.9730649472588676,0.3932295116123178,0.9339752310980516,0.06556898518862866,0.6377262263923499,0.10832154063455661,0.011611169009620805,0.012497715682101847
42,0.1625484644119693,0.4725963674415995,0.9738586357036935,0.39824058784995053,0.942477816081111,0.06700255974788592,0.6321676706101542,0.11562815282846735,0.07195889917698926,0.0297162607907949
43,0.159306257292216,0.4670419820269657,0.9782042248203013,0.3795558684031254,0.9496045352248487,0.08385009124916223,0.6299508041541682,0.1249062307863213,0.038172115756484506,0.04600980670952095
44,0.15928212254086835,0.4636479875506166,0.9848586340232501,0.3380999685088444,0.9538324932974184,0.09088106441610759,0.6319545908823749,0.13581974240576458,0.07134966842607005,0.05957580018549136
45,0.15864422074476484,0.4617072600048873,0.9899813723390537,0.2784642350238563,0.9565169505526104,0.08039168008642085,0.636326892044852,0.14799601029073503,0.02067738055725785,0.04742332579607602
46,0.15749454308361605,0.4618497062218726,0.995349529618558,0.2065001095141135,0.959149603124588,0.07524504055034968,0.6423093488134138,0.1609345249579106,0.037496109946223315,0.04311690532349381
47,0.15799069152202244,0.4619167830313781,0.9994374581250933,0.1286430927892774,0.9578108194441796,0.0685761749458788,0.6500686449717202,0.17380903459971417,0.04425344421639025,0.03264926956762959
48,0.16134799916069867,0.4612666564689779,0.9932175622532072,0.050048712112606815,0.952260892883222,0.07330499588857642,0.66124150737505,0.1867371260644796,0.03734629777081981,0.0361014577244611
49,0.16467355974118716,0.45829140297093646,0.9885779782782524,0.011147120101355918,0.9457999354180847,0.06967881004890214,0.6746224948040759,0.19916328145418793,0.02463611254231069,0.01577035544383479
50,0.16695751047809776,0.45406387763967987,0.9849440650872925,0.0,0.941984379710102,0.06672925039282569,0.6868170510279685,0.21077627138694283,0.01516510353846232,0.009399322343066487
51,0.1680646101833629,0.4475653563307186,0.9810301567931451,0.045002124916125645,0.9407854568444306,0.06605439225386085,0.6989459778609904,0.22185830106383916,0.024935131102218618,0.005165803675006189
52,0.16898244460977868,0.4405835743732905,0.9763699313187229,0.11194445271183712,0.9427198218931429,0.06158785826617203,0.7117294408505724,0.2323001524225664,0.03245840918396996,0.004904876124738273
53,0.16877982073429876,0.4355467724894092,0.9719642734852102,0.1640958697564618,0.9480717612657945,0.05734979742826983,0.7237480365840135,0.24191987803193452,0.06515961957431639,0.009136249584195521
54,0.16667259559999928,0.43284990326149103,0.9707721129394646,0.194400724639319,0.9553213359618934,0.056974767938871,0.7333203089239707,0.25070560644861317,0.01736399472042451,0.012760679631061563
55,0.16636506536790965,0.4355408821226786,0.9699001886535972,0.19858055292998186,0.959475024707174,0.0591148344259375,0.7413530302832927,0.2586717096832623,0.024729324715837706,0.009054300423984654
56,0.17053497935467063,0.4458839981775191,0.9674026974483063,0.1710667017812722,0.9547970320829456,0.0654385044742829,0.7505316733251234,0.2658196741329395,0.020046573789680836,0.006015206560492551
57,0.174896091257593,0.4616822537622227,0.9662645499114199,0.11919329664199264,0.9456374287348962,0.06769261843750389,0.7592089173561369,0.27223308220944903,0.07897892525842891,0.01976007177793893
58,0.18249677532381117,0.48492400180904277,0.9591751715714266,0.04936484199325627,0.9331725898365831,0.08332503039630478,0.7680060020014574,0.2781490380918377,0.015345248872694386,0.03179412510890985
59,0.19270806096750936,0.510475684923397,0.9514268931269791,0.012921002268761358,0.9183388586050033,0.08984672101443633,0.778000363851128,0.2840018997085217,0.018653706081647917,0.038748052792385156
60,0.20526415107113355,0.5322457821059481,0.9431013364064136,0.07290366518787433,0.8957723513341426,0.0958866388215601,0.7868767847820863,0.28981785288126033,0.012209078939772139,0.015158285615843942
61,0.2183741460557696,0.5537939883922496,0.9359619496386883,0.12795310368296253,0.8763559165365783,0.1083684351275085,0.7916945007079254,0.29549277793715273,0.04864386544595795,0.0182390962558054
62,0.22893854328505295,0.5738569886488513,0.9286588959658787,0.17037731131267903,0.8644941826458441,0.11644288124395598,0.7922889631790561,0.3011884080263893,0.022924648677619622,0.02888781441370385
63,0.23604351251639627,0.590221302822864,0.9253806091135368,0.1964853832982628,0.8562727245069162,0.10929597023835305,0.7888365979175698,0.3067043895912057,0.013951679672356356,0.04138762440176303
64,0.2389587625964839,0.601617098874717,0.9242078854371638,0.24125539509877936,0.8528835671433265,0.10783316032485962,0.7793305048013239,0.31187641860260373,0.011684308460281434,0.0702272334342801
65,0.23926306661454466,0.6084563602569233,0.9252369325565175,0.28182159251385436,0.852484838775785,0.10399951477288366,0.7666421950599787,0.3165408978756969,0.02972003885435335,0.0927161535715742
66,0.23302129869243846,0.6115104044686196,0.9293496373739281,0.3110380864595762,0.8579033270987044,0.0974415922373277,0.7506352906382353,0.32057157936350633,0.013050425752131202,0.10215679599798896
67,0.22107774683552217,0.6102277833583091,0.9372952798085523,0.3316874920414178,0.8727587123799542,0.09468247869553328,0.7309330236398401,0.3241026406712825,0.07174197440572862,0.11012066358370544
68,0.20606745720148106,0.6032697240807406,0.949819786349824,0.34623905542330224,0.8918077804922981,0.10900966259489675,0.7074457676318309,0.32730951880187636,0.0821546002887404,0.13184087867268127
69,0.1897330577455107,0.592222640870474,0.9664554675027095,0.3573943440362046,0.9139729208660711,0.12507509608395467,0.6791063943633867,0.3305688063127678,0.01474478688314971,0.1400184597776614
70,0.17384530498258538,0.5786832781440241,0.983842447144101,0.3640913048235687,0.9354840129883353,0.13345892699585304,0.6497904600109082,0.3342331146533801,0.025086791719106008,0.15376156564072602
71,0.16198382888192192,0.5629620949023989,0.9962408256586577,0.3640611741578505,0.953722485302913,0.14095886172839292,0.6226955115111743,0.3384250088294954,0.05899614576911447,0.15422228801049903
72,0.14938977589126484,0.5460019081865026,0.9724051029848796,0.3550340620497911,0.9723759494885703,0.1555601607743892,0.5963874270427689,0.34314640435498905,0.01981704155817128,0.14916756799881328
73,0.139420853122821,0.5299236676232327,0.9491414493759974,0.3391329362458077,0.9862137994742767,0.15236553523003804,0.571694817128066,0.34842466371704006,0.012522887282554355,0.1386581723659189
74,0.13226252988258339,0.5162699907449924,0.9265492305360725,0.3171316466992892,0.9946052822454777,0.15449324481047003,0.5500532267272945,0.35417542157074927,0.010652040796849019,0.12194633713180594
75,0.12649155139006504,0.504664950297214,0.9048521820870937,0.2908188966034448,0.999984048436895,0.15742897605807502,0.5311620960727942,0.3604514438933723,0.011752348258111549,0.12588219213876176
76,0.12356773840732162,0.494685969861512,0.88511125756715,0.2614424834351475,0.9999998981128692,0.15934995570902644,0.5160180409540491,0.3673337985658652,0.03052460266600702,0.13596707528399
77,0.1211311705794481,0.4872762606218731,0.8690412967529835,0.23725009918116727,0.9955936948463359,0.1524326335686371,0.504538392253513,0.3746940855052033,0.01967465578372357,0.12419625560360732
78,0.11840244050957069,0.4822629085181531,0.853922114659559,0.24388267975660574,0.9907527248719397,0.159514631887705,0.4952704010066414,0.3826599169423184,0.010890776590074027,0.13793961820321424
79,0.11332827287376096,0.48041262982118854,0.8419731608431881,0.2515362868360865,0.9850558069811544,0.16088131393499785,0.48890596733290376,0.39130331915355576,0.011057757110638312,0.14395061335777565
80,0.10599822278616146,0.48157766769717564,0.8335685543423274,0.2595050506136185,0.9791194458008333,0.16161558448353325,0.4866260551479781,0.4005333009887688,0.05645278443032273,0.1515019269830379
81,0.0981831513571356,0.48639379097659136,0.8300082538174495,0.26811590695843956,0.9737017210435961,0.15165998532296285,0.48991224628082525,0.4101961137140517,0.0683085016254619,0.1577763057124883
82,0.09116610376718375,0.49428851140197105,0.8318025340653283,0.27427543596011533,0.9688943269594146,0.13975130786758444,0.5008245109414028,0.4202829615627636,0.06407571635420073,0.16389491897123992
83,0.08828735732853628,0.5048218493345112,0.8396232856609032,0.27669603596280656,0.9608687937168995,0.1313866109200083,0.5193275356537294,0.4305728043772699,0.011815233464969455,0.16929591585598353
84,0.0925068953503386,0.518177669948645,0.8563831413862952,0.2728814100526621,0.9458024862961121,0.14266678118405335,0.5456204080224285,0.4408359418436245,0.08827337969937547,0.1814297654339924
85,0.10492116340553227,0.5306824544341863,0.8803583081329747,0.26605275227461195,0.9225373596464086,0.16750940395216274,0.577957164191704,0.451118097649708,0.08329940588384316,0.18674806688420073
86,0.12373901016513984,0.5427020287724488,0.9076561377000942,0.25833313590368706,0.895005033614269,0.18898245093749316,0.6119011836514676,0.4612811959801005,0.0123515415412844,0.21028767980050755
87,0.1443708535066178,0.550653804218557,0.934756180028625,0.24971003315074983,0.8676662292836339,0.18783221183388643,0.6430395997044752,0.4713108301191905,0.013044102911271865,0.20114129402034137
88,0.16540755464773862,0.5562698518171332,0.9607164469417625,0.2399846521800405,0.8449546590727287,0.19234142751726846,0.6697023962683653,0.48117304725696386,0.03450300817079725,0.20676390783950424
89,0.18543797170370754,0.5559973259853344,0.9843638891874322,0.22732054445362204,0.8251570759189982,0.18595236372570717,0.6919632575824468,0.49104472558496715,0.1223352366180208,0.1909124907570892
90,0.205183067516266,0.551697742972663,0.9964105482717874,0.2123816928496247,0.8058531639876985,0.16439981964178008,0.7082161010896435,0.5009009200084552,0.09204507760585656,0.18694841387928662
91,0.22553244171667897,0.5459933994886325,0.9801269446823749,0.19227395167634861,0.7872645306967199,0.1485752124920879,0.7180654604560366,0.510726596838465,0.1950538356643499,0.17974668663113183
92,0.23980299117644238,0.5386605314871235,0.9675558482582357,0.16842140444688725,0.7684909548228163,0.11213441642579394,0.7224711757391297,0.5204578149493553,0.03341369328974947,0.13650393470123992
93,0.2516796471024866,0.531117583564899,0.9540606703208679,0.14232389341615612,0.7491855915859404,0.10419453590623523,0.7245808452291,0.5301739991698965,0.06132322838534041,0.11023369388896634
94,0.2627217371487155,0.5252357029389271,0.9427733514448428,0.1186910977419159,0.7313749530236553,0.0924165298722695,0.7262420834849204,0.5398593878167464,0.10646707524855943,0.08691975531513828
95,0.2698526167102333,0.5187065589013008,0.9351316990425974,0.09565469962245292,0.7156685667693028,0.0772300189135076,0.7247921312091228,0.5496007621982616,0.05298794729991429,0.0610567391647433
96,0.27241411307681046,0.5131759786943867,0.9312137210521828,0.07589230614781317,0.7029777604837579,0.06847292213789685,0.7191004161052972,0.559656343062793,0.01567061966536577,0.032979461185816045
97,0.27479546732737997,0.5082361941492172,0.9282435590436275,0.057112242292034036,0.6893518989920291,0.06368208681024054,0.7115391786831482,0.5699390588365445,0.020963085467780095,0.02061647290899661
98,0.27632942765175594,0.501641909147243,0.9275237111678749,0.05010537388263541,0.6751857351799166,0.05922255845350104,0.7042791542059748,0.5805017284191688,0.08561671415056617,0.04502403712459018
99,0.2704070320360826,0.4978735472186915,0.9272211862261521,0.04308026078169033,0.6777265078164477,0.03775874711639058,0.6985561911371285,0.5910905285994305,0.09572722735582734,0.03422987902497331
