Frame,Center of Mass distance,Symmetry,Grounding,Arm fold,Leg fold,Kinetic Energy,Potential energy,Bone length coherence,Torque,Center velocity
1,0.9497796717913775,0.16469758827259773,0.04719126123215189,0.9836221633634163,0.7750679053012709,0.027163401572248516,0.25835795471087875,0.9999994297097993,0.022244260814748028,0.012240147587431223
2,0.9520854371495346,0.1633442118121758,0.04496920337292882,0.9849437062418154,0.7716428117580404,0.027163401572248516,0.25835795471087875,0.9998432023435431,0.022244260814748028,0.012240147587431223
3,0.956629698474588,0.16218933318532713,0.0403926420202724,0.9882328456297107,0.7642463767564971,0.05709943595917431,0.25919373634256215,0.9995021365853617,0.008629893342735452,0.03034733187077426
4,0.9614961099455008,0.16051944083433994,0.03484547702539301,0.9939395006476959,0.7542218008283396,0.06509097071169331,0.25979884294996114,0.9992355156751922,0.008650850044623008,0.025018530538607524
5,0.9664200295157505,0.1605013599628824,0.0282141059086057,0.9986799115116712,0.7414858487827625,0.07618018783200257,0.25965764797468965,0.9990750225139491,0.00888654256552708,0.02994738421364146
6,0.9703010778687072,0.16322531587697486,0.02112663382074815,0.9999999277814218,0.7273489074555539,0.08111910807675674,0.25949376593934675,0.9988662154041283,0.008863084497899073,0.03561102400288705
7,0.9730519209163412,0.1669842242671508,0.014553196344916638,0.9971082048292501,0.7138859543289633,0.08045432096143787,0.2599236242271782,0.9985215170116428,0.011129297279000293,0.051346608264233956
8,0.9757303682734964,0.17034719957866407,0.00880912944445854,0.9936857869151255,0.7021844534557123,0.08273809899379295,0.26100343166203055,0.9980538870215868,0.015200660942664208,0.0620236347921906
9,0.978553374422558,0.17217273464309404,0.004137053832566506,0.9909712684224893,0.692863332987185,0.09070232951687895,0.26298681649395206,0.9974946819052339,0.01015219760938197,0.07960502767448459
10,0.9804773681637764,0.17444718531898684,0.0,0.9874906698603121,0.684765975824125,0.10816128843927146,0.2661154926890002,0.9967877650486887,0.010089839967379909,0.11861891267017446
11,0.9803844869466535,0.17740440295610643,0.004350941754844609,0.9808233201727994,0.675325156742277,0.11539272224090659,0.26916999740009867,0.9958571983080677,0.1195698803700114,0.15157899560991883
12,0.9849945091644831,0.17682102240258146,0.009507730339269257,0.9740289936438002,0.6644827630263633,0.16466808708939265,0.273406193978354,0.9948048197188953,0.009563183378046842,0.1362923164693116
13,0.9880250489384176,0.17543458585114557,0.014181210128541847,0.9667014958515507,0.6531743206682279,0.167494020307506,0.2798896969671369,0.9937066991432468,0.01841186976164756,0.13013192809465937
14,0.9851660537283808,0.1776910363846304,0.018210746250071807,0.9566671395131057,0.6415043022719298,0.2031034501300724,0.2879955892061685,0.9923745593965843,0.017339123097090996,0.19488273411339088
15,0.9779365075863184,0.18181403848749356,0.02161918300898467,0.9439356425213338,0.6293815639024959,0.21320461258260556,0.29775716237425326,0.9907462213221121,0.02845347886897029,0.21304055539246927
16,0.9657151624470997,0.18969896893262278,0.024925673470338455,0.9239628932319623,0.6151209357129248,0.23326815164893608,0.3081753241241465,0.9887532430820626,0.014955708317671023,0.2450656946615935
17,0.9481216241711581,0.20248928983942766,0.028892867135911472,0.8980077740512888,0.5963501614988492,0.2508083365002383,0.31928385854924085,0.9863688401714809,0.04615735938703783,0.26260002918763375
18,0.9255574485584963,0.21410737236915678,0.03195190530598918,0.8706864366482916,0.5755524894126305,0.2741012689467834,0.3318694326581679,0.9836514232007134,0.1004010164649372,0.27762424977015465
19,0.8943140474746113,0.2257722720540152,0.03414506428880112,0.8465704820687576,0.5487064571871879,0.3298637177675545,0.3474231595008042,0.9805583869153662,0.010759893330190536,0.3092756964538954
20,0.8549115001172816,0.23742710832754074,0.03643095937345065,0.8231724282802754,0.5120370830626282,0.3428870247210621,0.36499484567621104,0.9771420678210545,0.016898245893282902,0.29177525997932985
21,0.8075475814845212,0.2502582553843766,0.03672604800489247,0.8033935537520615,0.46892705625657904,0.36127550234791733,0.38330401213325355,0.9733680382294179,0.02999454742195104,0.2753585063138617
22,0.7545421287058498,0.2661082688451279,0.03313985446855613,0.7838724594682996,0.42439356036646386,0.3793503417608809,0.4038465598852856,0.9691864623739986,0.014656527364505165,0.2690613651071004
23,0.7018684486730736,0.28315105646421224,0.026123074407530998,0.7641571087964942,0.38252775781499604,0.3734412565959081,0.4265095146529555,0.9646060593405267,0.010689291572112219,0.27042177517412175
24,0.6527723076936359,0.2961807525941134,0.01561191589243494,0.7493354850507008,0.34553951063422617,0.35798802124059403,0.4507741735242503,0.9596191316918392,0.1204024155883852,0.26161447469382615
25,0.6065540374753421,0.30715790673808013,2.6347199235819175e-05,0.7401239739271586,0.3158209565430237,0.3847918903412534,0.4789229129156744,0.9541250074153892,0.11018039056017118,0.2871881059825113
26,0.5638079836395308,0.3170377040291212,0.01980081859730864,0.7331475901871617,0.29182584338136147,0.41162957658851346,0.5122355093659577,0.9480023751647847,0.07422942596919749,0.3107317903555497
27,0.5262515826097584,0.3269449110109114,0.041967011738738215,0.7284584649888475,0.27285982246680507,0.42549576167327025,0.5493309406197624,0.9411324706706153,0.08154491861961244,0.3378560879268538
28,0.48949389565814244,0.3387902565400328,0.06714471240085049,0.7267676266564598,0.2529170523103358,0.45543884112818817,0.5898321277371266,0.9334210534074984,0.1643128801834104,0.359137482279614
29,0.44777444656469745,0.35588138991605944,0.09747982069332917,0.7261479312547583,0.22424012642778507,0.5291226912792417,0.6352738505871437,0.9247770681637433,0.10225122635007883,0.402929459092954
30,0.4083901673574374,0.3768590107206891,0.13095429214152174,0.7205932824956967,0.193181008962523,0.5705935879518795,0.6849832779727255,0.9151521751276359,0.009831681505818724,0.44663080405966193
31,0.3734087958050643,0.40428445930437373,0.16194128600821758,0.7008909309679098,0.1590775860372145,0.5626452070911055,0.7331619528256115,0.9046202357117098,0.11189789492031242,0.4834611717075261
32,0.3392851357784988,0.4327574052594575,0.19474337542204234,0.6720743223094333,0.11922366570992224,0.6038007775299775,0.7770170523326506,0.8932848202141129,0.06209601101718915,0.5146179394166562
33,0.30939764528263686,0.45424579015989264,0.22945533480683783,0.64984433948409,0.07699582656262993,0.587574523259476,0.8179161766888136,0.8812194909006767,0.09229709102308259,0.47642006733131254
34,0.2845091180737828,0.4679134500462305,0.26432173105546364,0.6394240296486752,0.03471551616424753,0.5540167366408241,0.8552702519939106,0.8685764530528796,0.03372454175695727,0.40088864925612266
35,0.2641293444450626,0.4816516576069018,0.2946913171871717,0.6310051671218763,0.006025308199331645,0.5284051054091218,0.8872706790893797,0.8555387548808217,0.017771237683368916,0.37180161716329474
36,0.24969791730404298,0.49295300000952447,0.321711041894887,0.6202381745520462,0.0314637939964317,0.5222912641348453,0.9139886083802536,0.8422143927596932,0.016709636267473755,0.35108807450729906
37,0.24085217993749167,0.4992522237903461,0.34780193346277827,0.6120842078425796,0.06954972996365759,0.5198020065201956,0.9378516269754402,0.8285818305379237,0.1524759821947216,0.3259571286356936
38,0.23825198746805426,0.5018136408945273,0.37253996806864453,0.6064541934868635,0.10313246744569743,0.5560498905312435,0.9590991961585119,0.8146216986648254,0.10036997521218355,0.32304843089112895
39,0.24195309879878896,0.500569248456793,0.39475256700769684,0.6000509909257671,0.13022614967626173,0.5763745732398756,0.976550789437215,0.8003254032193122,0.00959639365724046,0.3245201200766128
40,0.2492835384435359,0.4955825656183859,0.41375198156246,0.5928337194470754,0.15349198430403352,0.5736245495610645,0.989567983676262,0.7857142119860597,0.16793651206982438,0.30540870041911244
41,0.25889266265673444,0.48577824731174607,0.431601718337615,0.5858561874542726,0.17850179108596245,0.626237131652268,0.9976430044418321,0.7707815069255778,0.0891065081137803,0.29419380466793654
42,0.26897071144866874,0.4717231529300027,0.4459073359397979,0.5782669081081849,0.2056169662643689,0.6576425521354748,0.999999989183899,0.7555465978321056,0.09406705774717211,0.27717641406686594
43,0.27479513097376923,0.4591933429715935,0.45063975909435244,0.5592895785481775,0.235140955275671,0.6925149245616905,0.9934842382434937,0.7400759790698068,0.1090609462717643,0.28340381351798377
44,0.2741552112749945,0.44805360517622667,0.44437891528383894,0.5248259781267389,0.26722117895593056,0.742269531422039,0.9753165663401456,0.7244831763954876,0.0806864953293387,0.30691460464380826
45,0.268834987487394,0.43115280546947343,0.43470591666409064,0.4896685476152752,0.30520411062012787,0.7436197805930428,0.9493652863038731,0.7088268409072682,0.1289092184157029,0.2626679690230297
46,0.2617708783226113,0.4068919161117638,0.4276724714333483,0.46614782915951536,0.3502367842735641,0.7311514058718354,0.9221120498730967,0.6930822125757745,0.10571765270172713,0.18260966538343215
47,0.2533484528813438,0.3806601536049873,0.4207522436659125,0.4501995654987869,0.3965338632056771,0.6965256473410383,0.8949616376181548,0.6772384703819312,0.16200464674563847,0.14260904822321835
48,0.2412987248237652,0.359140440490288,0.4066145215147915,0.42559493276924226,0.4398930106207817,0.6467790805622058,0.8652055090247824,0.661395484023479,0.1385628929162531,0.16267010761886863
49,0.22822537261812492,0.3382161881806545,0.389256484627038,0.39646226289349507,0.4784343820385627,0.5975883831298366,0.8324547498122942,0.6456032772650581,0.03505942535011039,0.16602487132589433
50,0.21565835180357676,0.3125244210623989,0.3710975230798769,0.37651052002779983,0.5119606440518377,0.5967853602831276,0.7978916286738772,0.6298711330041484,0.06161541188130819,0.14275884113366866
51,0.20353523916807786,0.28295166068094385,0.3518548951886718,0.365948870749962,0.5384461209177189,0.6064790555606948,0.7608043586438511,0.6141559438515733,0.08089525201653831,0.14114800107245587
52,0.1909462661292864,0.2482899777217534,0.33227362651920783,0.36480279471250165,0.5596024478925152,0.6347312183978757,0.7206456452106194,0.5984102834376741,0.07707484542832059,0.1567859565697521
53,0.17589161120369248,0.2102786898626324,0.3108268100583473,0.3684376282224712,0.5792776585703933,0.6602558198020337,0.6771275624385074,0.5826137062284142,0.10767616465885395,0.2080514614521213
54,0.15735544270594254,0.171932203095088,0.28219278716891155,0.3757173898165064,0.6006289710063699,0.7284080547147995,0.628482584229591,0.5667494175830621,0.02405644276888629,0.2706004642400259
55,0.13461057971426124,0.13812390237372038,0.24093196341244302,0.37908934125864036,0.6307269776270519,0.8174892449212321,0.5721287492632693,0.5508357111385843,0.2608319411689268,0.3531051130107337
56,0.11333877291334962,0.11061187346597415,0.18518265626001196,0.3679106832927587,0.6657630915717284,0.85671113727188,0.509743470750917,0.5349417910318252,0.02554918926608889,0.4593758375537019
57,0.0983244960988325,0.08752294344739628,0.1215311748134375,0.3410661034470512,0.702488135973172,0.895443485471568,0.4471743620200959,0.5191380019663063,0.11122641671917713,0.5916733509618075
58,0.08822612021153406,0.06909353123691647,0.06656120875519456,0.31997700877878166,0.7356368647907252,0.8302309680606091,0.3903543075957883,0.5034477183134556,0.032520701520036666,0.5635718203987701
59,0.08038787797996919,0.05925010514931958,0.9801197674290411,0.3123040462758703,0.7671120719069673,0.7710475416006201,0.34122447979169,0.48788591473470105,0.051053256903143204,0.48074736830320874
60,0.07692758690232125,0.053880453401569474,0.9788490472944333,0.30612407110164497,0.7967706104313571,0.7131588729457725,0.29910655151723914,0.4725000960024732,0.0,0.479424886409328
61,0.07786140008528271,0.05242662747478184,0.9393708267224832,0.295477573397008,0.8219140852909371,0.6935506762410899,0.2639764996948363,0.45732469378143675,0.0002666045449810177,0.5330146365204084
62,0.08065830091862153,0.053264180202913285,0.9049788385962589,0.28782323609451466,0.8432783406052184,0.6694630955400117,0.23461914786940993,0.4423578999967426,0.10901492768319963,0.5447635115831494
63,0.08407027679835172,0.054518975437905244,0.12785320414343707,0.2868671108404413,0.8647640844651602,0.7018271893127741,0.20756968673043832,0.4275740061234635,0.15354424546049986,0.5709655525188596
64,0.08864695576996912,0.056832460752107884,0.15728962381372769,0.29331163370713864,0.8831611679299389,0.7414483327887218,0.18044003262234712,0.4129643578303511,0.15262442696609277,0.6058775767385791
65,0.09622497776210233,0.06058013033410758,0.18561511269583653,0.30092979469313363,0.8985085679325031,0.7905921647799172,0.15382793137199688,0.39853899073201327,0.10266092183732921,0.693791247475719
66,0.10491369878540324,0.0693984635184243,0.21031770314685685,0.3065367585165593,0.9114777983167546,0.8320803582704368,0.1301174294150933,0.38431669436054744,0.14157222519125662,0.7845764710069634
67,0.11460406036170759,0.08151982764294706,0.23172132227991574,0.3069760278126414,0.9230259730064302,0.8856801425749552,0.11079929164778574,0.37032002513949186,0.15340162855332107,0.8666121781971075
68,0.1235575116171333,0.0931955431010608,0.2480526601489644,0.29787328146648967,0.9347427040841026,0.9256666541824848,0.09772177317583552,0.35657741238287916,0.17744965832337586,0.96713124878722
69,0.1277956832053859,0.1000848456524041,0.25730721579666505,0.2723582141288331,0.9505965085035094,0.9550939767894698,0.09421278434448756,0.3431381920110293,0.018845479213297846,0.9999999957203044
70,0.12046844111379028,0.11053471135299037,0.2540826205838244,0.24339292070917817,0.9737603077862926,0.9556451832937739,0.09976111512777326,0.3300260625633285,0.3251283630057652,0.9492474534204632
71,0.10255273084562133,0.12995613215339763,0.23747138335693357,0.22549712769081307,0.9944842957086917,0.8984383231807895,0.11153403353876844,0.3172175411437617,0.36958287239029414,0.8345292200595689
72,0.08034629800863495,0.15261206720516535,0.21134245066097646,0.2080561244977476,0.999999972980181,0.8365514624680602,0.12781703305725858,0.3046938074761217,0.4204309761961965,0.7436370470322269
73,0.06341775188875172,0.176380738914926,0.18424040794166577,0.19864106531686887,0.9833297241142325,0.753823167392367,0.14755858036963226,0.2924564961389298,0.3135970245627491,0.6827220337927123
74,0.048878083610823575,0.21059458871414835,0.8456792803188272,0.19291330301575674,0.9571738663219492,0.697492788071148,0.16913877141178796,0.28050531147715707,0.2907368096503184,0.6426090176309877
75,0.0382633303091177,0.24895923855624583,0.873918797308415,0.19369365152609622,0.9293688639469374,0.6462408159381421,0.19050390373915616,0.26882894888053394,0.23651274255332702,0.6017368209373091
76,0.030719504174505575,0.2869001638008799,0.9001446333423068,0.19610272935646525,0.9062611286652724,0.6089283456148015,0.2097704893151851,0.2574184033412119,0.024101364282813318,0.5885308563170014
77,0.025112066623503217,0.3243632471987345,0.9260381775935147,0.20394078135645097,0.8870564296932532,0.6106995234050586,0.2264484227912501,0.24626810582619713,0.05947594517643931,0.6005148125942845
78,0.02101260710145581,0.3609876322257513,0.9521381812156976,0.2156484736871848,0.8700990406112447,0.6203826610408523,0.24156390365385755,0.235377334479275,0.29356286083853683,0.6096611744723992
79,0.01604892515400539,0.400829138115743,0.9846212581372271,0.23269149182743126,0.851222153737781,0.6674818705089695,0.25895375235994356,0.22474778901416748,0.23112221535073554,0.64043584461441
80,0.011942302530084558,0.4426684525373907,0.9784238986204599,0.2478924934426335,0.8265402673152736,0.7171103809926538,0.2826963523058427,0.21439366024872233,0.279363207706087,0.6717145670551189
81,0.008746694900577057,0.4827669354457024,0.06262158528205976,0.25892050556918866,0.803949126425175,0.7773306080213601,0.3132745582632247,0.2043337123759869,0.313658916725611,0.7284827611073521
82,0.006059896432891821,0.5224904723777992,0.10484939654652933,0.25645260017449867,0.7760959371079631,0.79438649153806,0.35151005515041545,0.1946079178567434,0.22902869154255212,0.7427856428844586
83,0.00497881554653144,0.5648344327757436,0.15047317305898414,0.24798067507551225,0.7412714732001768,0.7938750319931971,0.39699196846109985,0.18523274834696282,0.6223767601078077,0.7472819563539539
84,0.007646670655510579,0.6073571445863769,0.1961794487672126,0.2461675420445165,0.7010845402992391,0.713136037790448,0.4430445700118211,0.17620171422128275,0.4283139416059195,0.6267131569607892
85,0.012087152259482118,0.6488697395442317,0.23749258190577432,0.24821391413579136,0.6627050195657604,0.6637792974491302,0.48495068069423847,0.16751262168536757,0.30803612046980916,0.5775502747486428
86,0.018468755699178732,0.6881397092800099,0.2741358136425815,0.25348452592078297,0.6242085003485864,0.6249470269605182,0.5235158753017475,0.15916110554412552,0.11384735925340402,0.5511375505616902
87,0.030029656951361502,0.7247166930875042,0.30748392422521237,0.26193864091376096,0.5882394159936293,0.5974317128546033,0.5594978399416874,0.1511364559277066,0.16113360296307616,0.5344705368831147
88,0.04618535741357908,0.7578091244253239,0.33681978667664275,0.27194327834344034,0.5575713205765558,0.5669021495249132,0.5926902148387884,0.14343105468275646,0.1346364261359304,0.5214865590520159
89,0.0629058535468701,0.7868245361047168,0.3628494681896903,0.2839132857008258,0.5324418553628111,0.5447050498408986,0.6226230928295524,0.13604133271874755,0.1193735272478366,0.5309437435131984
90,0.07926690425561835,0.8137842145652262,0.38734488585703447,0.29585480999072916,0.5102753083214925,0.5664676621454997,0.650545418448899,0.12897093248153166,0.03685363094944109,0.5793334464027243
91,0.09613969112003849,0.8383657270522463,0.41010143367085533,0.30832631912909375,0.4889030898483682,0.577918068310305,0.6770397147426716,0.12222262460415612,0.26706144351671335,0.6000881010430539
92,0.1151652545434086,0.8624390321860007,0.4300393671696314,0.31900889581077774,0.46345573694687053,0.6425754878569134,0.7014602899642906,0.11581792332813562,0.29574742071173926,0.6746016056876747
93,0.1346540073153273,0.8864224876013997,0.4443320508637655,0.32394480189151803,0.4344290151320146,0.721309889321029,0.7223869186287588,0.10977993937996074,0.4534648401179675,0.7557059950805451
94,0.1547118049648223,0.910304617560724,0.4489942972339942,0.322310898029013,0.3981207045955355,0.8288732646484213,0.7360853049225341,0.10413901095755565,0.12985071014430327,0.8499636170019983
95,0.17661697365343534,0.9298656545895074,0.4439910924378947,0.31469274600739916,0.3541970441399796,0.8748172742635314,0.7388446420878166,0.09891258181734619,0.3388313903924108,0.8709732978320038
96,0.2025727260648195,0.9399998303207237,0.4363213396975837,0.3147117453457004,0.30571530661186086,0.8127271533278249,0.7321526349153519,0.09407077630329388,0.6551992897574149,0.804429410118019
97,0.22831245911436907,0.9423535972124072,0.42315932831770636,0.319894044225094,0.2563335932386892,0.7139271308043353,0.7191248512569441,0.08957239941862498,0.480112485462104,0.7100638715398787
98,0.2512234957175878,0.9415474577453867,0.4020935497327864,0.32360141462802916,0.20997363179997086,0.6576505569301736,0.6990484397687238,0.08539896077316031,0.3401706925555191,0.6684796831908
99,0.2722621231287288,0.9384931262257172,0.3771962919810508,0.3285610881078156,0.1685105675844364,0.6132481823371723,0.6724595315376584,0.0815360799818024,0.4164476599796754,0.6509303469757859
100,0.2917163074397239,0.9327113522328614,0.3533282094317877,0.33867496495742694,0.13298433049354524,0.5515242717873428,0.6428271927326134,0.07797127054849248,0.24134679303027895,0.6282708465284621
