Frame,Center of Mass distance,Symmetry,Grounding,Arm fold,Leg fold,Kinetic Energy,Potential energy,Bone length coherence,Torque,Center velocity
1,0.962317590991576,0.17670604472352655,0.07079623644773778,0.8949519003101735,0.6900406660714391,0.0073062438268203505,0.2503985964918919,0.99999935144739,0.020168610146396333,0.006969837581864503
2,0.9625898395714285,0.17658063407631294,0.07020451152230288,0.8951700871249517,0.6896928851092223,0.0073062438268203505,0.2503985964918919,0.9999451618155156,0.020168610146396333,0.006969837581864503
3,0.9630942690018548,0.17635570668188588,0.06933884302112343,0.8955493092044974,0.689208809576273,0.012191679662111073,0.25064632612927795,0.9999001863269942,0.02006678321054398,0.014818244352923482
4,0.9636630870932473,0.17628774867325522,0.06850623139835785,0.8956249594342978,0.6888652497118181,0.01584536136001299,0.25108714145996275,0.999837104371829,0.019995439819329393,0.015164313934523473
5,0.9642282005806025,0.1762136198247313,0.06721959783441418,0.8957768919405081,0.6880801458292881,0.01482043763244891,0.2515581875153041,0.9997693040650794,0.019834816596744645,0.015974742629661334
6,0.9648038154846018,0.1762740494262362,0.06628176195052467,0.8957834710057675,0.6876511239693899,0.014138371948955538,0.2518807848341696,0.9996968849017815,0.020344107207055893,0.015725444777331322
7,0.9651367835074913,0.1762404809482402,0.06545363953346962,0.8952546397583778,0.6871721645406004,0.01103482375027716,0.25212583378461007,0.9996305765870755,0.02082894929458942,0.013079770667361785
8,0.9656788850095634,0.17645583205001864,0.06444662907067701,0.8949131117267617,0.6866918340099696,0.01540643727224003,0.25251213109455906,0.999556715827697,0.020671861532042455,0.01139645575976467
9,0.9660864249187411,0.1764244830476493,0.06371012726107764,0.8943425334975678,0.6863351317121288,0.011431620868965955,0.25298749317858354,0.9994999792853094,0.02118125342053186,0.01022024557227086
10,0.9662903156595398,0.17624334405019873,0.06346856038106367,0.8944458966089569,0.6862215159522688,0.00479996298587767,0.25318395146980904,0.9994747895749987,0.02081171832637314,0.004061139939685702
11,0.9667684263592987,0.17570707787109854,0.0630604167618818,0.8949487570807374,0.6861404314172967,0.011880600812250515,0.25341861813025773,0.9994750116205672,0.021935085956018726,0.01187979082531071
12,0.9670542360923008,0.17562495353311774,0.06226331067519033,0.8950908646828318,0.6855246040905014,0.003974193448043795,0.25357469231552293,0.999490510631194,0.022774649134373947,0.00096497628192423
13,0.9674985171073059,0.1759136176301577,0.06141097375460585,0.8944789890552943,0.6851704992725806,0.015383718114315438,0.2538170214990806,0.9995107875468119,0.024958001775319885,0.012728520927997734
14,0.9675878746728809,0.17575192193159267,0.0611997770314061,0.8947578536662291,0.685004901135547,0.001381660448697312,0.2540917207306463,0.9995416940779007,0.020484444532286584,0.00013137671533580255
15,0.9678547027465148,0.17523177597390133,0.061095913135649056,0.8950757654020776,0.6849730156686629,0.0040566248382841,0.254012736392229,0.9995749326978598,0.020270014914534645,0.005016259882140339
16,0.9680450227810725,0.17492958451962623,0.06127588947368009,0.895285090519237,0.6852253632862265,0.0026956296166474603,0.25411105198325085,0.9996122038324536,0.020329592840887003,0.001792176120547119
17,0.9683850922060592,0.1748266741145352,0.06093919904539076,0.8958683978431583,0.6851316901189698,0.0073148717352392294,0.2544088257953776,0.9996402280284458,0.021326960369211972,0.008110311543936505
18,0.9683763102719652,0.17480000978673801,0.061020140784716875,0.8960507308717969,0.685234540443785,0.0008763908196126208,0.2546620942357724,0.9996564856133903,0.01966842159130842,0.0
19,0.9684212987010132,0.17486805959467297,0.06089325270512616,0.8962773489803048,0.6851565873939196,0.00051567493001583,0.2547389410042743,0.9996610205316083,0.019753075893746374,0.0012593888161130478
20,0.9684361725931272,0.1748375720337896,0.06074255823161609,0.8963157113624701,0.6850127725155652,3.1569092085535725e-05,0.2547404580788277,0.9996589626095237,0.01994464642648901,0.0009744603784959372
21,0.9682428145078077,0.17483415893378737,0.06116597195204057,0.8965569022269683,0.6852740749694753,0.004220377146485612,0.25465820116688337,0.999654122022413,0.0196518609207615,0.003154082274588664
22,0.9681992854055149,0.17474629152018165,0.06128922105427493,0.8965726401866511,0.6853110389176766,0.0024061017907458632,0.2544709256244651,0.9996501045286141,0.01998416265905025,0.002281624084485835
23,0.967873456669895,0.17454379899516836,0.06178929136312003,0.8965561696235644,0.6855039961451399,0.008629853652808321,0.2541285820567216,0.9996416930554752,0.020649765870797213,0.004380451853890424
24,0.9677716537280192,0.1745620801693344,0.06209544158892413,0.8968070568909047,0.685714769477003,0.001782615319894577,0.25383200092990454,0.9996282606910759,0.0196551576584801,0.002206917402057493
25,0.9675684775980474,0.1746552415842475,0.062414923395323084,0.896725279790725,0.6859301566170473,0.0015878838930948659,0.2538148619181555,0.9996124360290356,0.019645891962669085,0.002851488552909919
26,0.9674418871381649,0.17478770170208086,0.06253276504522433,0.8970721032305496,0.6859593107412335,0.0018365202810509808,0.25374603456082706,0.9995947602133959,0.019905556382779688,0.0009897180498020502
27,0.967339690268819,0.17469395595320922,0.06269427442340073,0.8966034445825324,0.6860585472934783,0.0,0.2536397831643433,0.9995775896890161,0.019679313731697658,0.0010990456873632818
28,0.9672468843642674,0.17495242766516508,0.06269546474309672,0.8968088375784943,0.686051942966519,6.802050114239588e-05,0.25360132812287123,0.9995606186464087,0.01982729730699999,0.0017693845683527261
29,0.9670732421508564,0.17535682928279675,0.06285534168283279,0.8966317338673304,0.6861790512923641,0.0019275702760865772,0.2536488543882937,0.9995443737526998,0.019685801964828217,0.005019774136048465
30,0.9669963283909079,0.17543529119268358,0.06292662482805454,0.8967203836411917,0.6862670403495723,0.001396165044427665,0.2537088299649511,0.9995224822511959,0.019765425063671415,0.0029279189713184747
31,0.9670668186378357,0.17538570476358975,0.06291832659931687,0.8965858319592148,0.6863028583653897,0.0003776805670019115,0.25369656271252017,0.9995021873743154,0.02185902392008315,0.0018069949433407164
32,0.9672041677214536,0.17561804305648032,0.06271178912749856,0.8964012122244756,0.6863437034148044,0.008810443347413408,0.2539147379781166,0.9994802576596546,0.02131169380095063,0.009374092798907187
33,0.9673281402282844,0.17534236847840365,0.06255765973143727,0.896842419749149,0.6862341829300693,0.0015250234333608385,0.25410072825674457,0.9994595055474401,0.019646810151244795,0.0037214408409922744
34,0.9673830651393246,0.1756239034651711,0.06233098885218998,0.8968422004929458,0.6861370025568145,0.0030909683001258815,0.2541530840562363,0.9994344250397439,0.019718838086502263,0.004103889786539554
35,0.9673806363380945,0.1755571158414638,0.06229976846702126,0.8975374690524957,0.6860499700302374,0.0031561780786091083,0.25416165912645877,0.999411864540611,0.01966481159339103,0.0025867893741088077
36,0.9674531918475282,0.1759732774760543,0.061990625437410164,0.8974965463915856,0.6859103980583999,0.004956095217855963,0.2542453695554834,0.999383933725139,0.019665231001028335,0.003803258403309005
37,0.9677661672269321,0.17606397184818315,0.061764328658638706,0.8984209950311141,0.6858738916930482,0.00587120972467347,0.25452791376718764,0.9993609377283685,0.020256466470659238,0.006578026559046722
38,0.9678264984591775,0.17612855935757654,0.06169369168696631,0.8998980714165472,0.6858207092523151,0.002069687248124633,0.25464125847805275,0.9993334154553989,0.01983586115813098,0.0027296553478249434
39,0.9678085817848904,0.17666638409493204,0.06190301790778657,0.9016851803895855,0.6860531954542832,0.0033643423824215504,0.2547116183019197,0.999309026673336,0.019636532438529877,0.0022198913633495066
40,0.9675271692031259,0.1776572898134805,0.061883768737846026,0.9023531924651914,0.6859552898692595,0.0041926629497758385,0.254700727586806,0.9992946882268556,0.020589578885384152,0.00400619105565091
41,0.967166454925344,0.1785806448209455,0.062259603679565706,0.9038139378468208,0.6861157960214189,0.00870776771399059,0.25439450789186674,0.9992859672339597,0.019830994105577794,0.002575409201199894
42,0.9672124406161469,0.1791260396895992,0.06237846560349216,0.9058052382972116,0.6862428076232534,0.006456295796359988,0.25414374697986253,0.9992762185192556,0.021584700498122448,0.007372211099718596
43,0.9674527286650023,0.1790356660826957,0.06186560786019895,0.9093245617752288,0.6857807905037012,0.009871236085394836,0.2540541289165763,0.9992528634556288,0.019819425876766543,0.00514042696752578
44,0.9678468209904895,0.17869628349305383,0.061626421619576856,0.9123415938124841,0.6856627669225211,0.011822995925509911,0.254011010275296,0.9992137422678231,0.019946602567721978,0.00796188029212683
45,0.9677608180101678,0.1784065139798593,0.06175028288622622,0.9152204992534715,0.6856101465426582,0.01176446841832831,0.2538897371866691,0.9991565134474953,0.019918919573897624,0.003975848478791652
46,0.9680520950426711,0.17782191273941989,0.061760927745221635,0.9182454598882753,0.6856125365292861,0.012397930151567236,0.25381465616707327,0.9990798663886266,0.01970595979569156,0.009193739472439314
47,0.9682263594312194,0.1774166704082941,0.06187805520330536,0.920844072761969,0.6857590695166726,0.012551277061852481,0.25398283258214704,0.998983188768495,0.021192581951295777,0.007085432450902322
48,0.9690756925654646,0.1774413029738374,0.06100041548689786,0.9241527334317381,0.6855295539578877,0.02468042198076479,0.25472385725452645,0.9988649869970909,0.02024664540841974,0.014583041202226836
49,0.9694451958041559,0.17715634478738207,0.06027785742230844,0.9269634133199538,0.6849658841005754,0.014941067701008733,0.2554726565949488,0.9987241246383756,0.019719698077500812,0.008780776214273072
50,0.9696005169679847,0.17701247496013686,0.05989117356678831,0.9298941268853704,0.6846120413500439,0.013116382688572025,0.2555798300564423,0.9985685807756566,0.019641869795969838,0.0077374778550655275
51,0.970025114527403,0.17665289641607435,0.059796050018513056,0.9324807012180739,0.6847272619824339,0.013952547225642263,0.25587524811145507,0.9984008358207406,0.020844915504704756,0.007267537251705443
52,0.9701960635291594,0.1764439222951031,0.05933376385773153,0.9348577998480664,0.6842733672648518,0.010912558323931485,0.25607623710645544,0.9982221765691011,0.019625871971346617,0.00808532571796917
53,0.9701012085835989,0.17594252696166912,0.059728405850647655,0.9373336705744113,0.6845467277644651,0.01076892014451779,0.2559737240374987,0.9980368628630503,0.02050844490873683,0.0019411733558408362
54,0.9706248097804597,0.1755822435789809,0.0594405525390274,0.9394689524603878,0.6845402325538592,0.015021836640089787,0.25636777644936626,0.9978520876494689,0.022734199817447495,0.006896425779883054
55,0.9708554367771517,0.17534769355194044,0.05908277644755228,0.942523691075823,0.6842348195926726,0.009427973180548098,0.2567067638491212,0.9976663342933894,0.019903870520912224,0.004748210438495841
56,0.9712416833693271,0.1749278771049989,0.058856751741854126,0.9454733070700078,0.6841591712647539,0.011423960681100758,0.2567681920068498,0.997477580625082,0.019852600839831955,0.006436313167470308
57,0.9715277364891145,0.17502493319930254,0.05827869848835577,0.9472337589539759,0.6838181079024644,0.011572462493534195,0.2571398473050452,0.9972934730953192,0.019946464559519258,0.003990068141862015
58,0.9719919868302692,0.17450840723264038,0.057783899595307234,0.9498696177501558,0.6835077063227883,0.01077946068561119,0.2574945710127696,0.9971112630853286,0.0197129123774463,0.007759224702226111
59,0.9722190881141554,0.1743368923965775,0.057219347968074624,0.9512420928080971,0.6830946391101606,0.009704277527871277,0.2576664463772062,0.9969285032790093,0.019686313222748063,0.002428906016251474
60,0.9729571069984153,0.1744715625417276,0.05527110070797533,0.9527474140207259,0.6816498640111976,0.015132831158350847,0.2578752226451212,0.9967518874942874,0.019829464857403896,0.0030925890259126767
61,0.9738180583133721,0.17448770699252333,0.05241470753811755,0.9543904853584149,0.6793473667841635,0.018872920772490052,0.25794128621089196,0.9965748347499482,0.019733945925838204,0.0024536287115932594
62,0.9751489670693042,0.17447731880496398,0.04872223381380885,0.9561032351889704,0.6764738485322199,0.02739375223583172,0.25795944525753617,0.9964034714809265,0.02278029165187918,0.006578029204055233
63,0.9755858650238701,0.1749853115273939,0.0463143190962593,0.957506552495131,0.6744111413506829,0.01563248774491488,0.25791910591012684,0.9962362605506836,0.02014412360101879,0.004335782578948785
64,0.9762595870728503,0.17503294657129448,0.044696368547225265,0.9587919220814722,0.6731583870646703,0.010928242819247614,0.2578580195082022,0.9960756512122584,0.02043613891853628,0.005926667294024217
65,0.9768002371646552,0.17395986685779985,0.04506713612795365,0.9607442561222276,0.6736308739765118,0.01370106115443972,0.2581733890919924,0.9959196852907133,0.025496493786291898,0.01466968618301254
66,0.9767725371097592,0.1737507841212155,0.045720315558834934,0.9606434312048163,0.674222590450308,0.006699761337644109,0.2585038452872123,0.9957662712178929,0.020660339971034194,0.0028239502748431994
67,0.9760084516767796,0.17418272250271838,0.047281640899474814,0.9593353687791791,0.6753966304206788,0.012457372665059203,0.2585391177525958,0.9956121646181737,0.019792481619344788,0.006740980735018825
68,0.9751076752219515,0.17473040876437065,0.048798074183009424,0.9583114112456387,0.6764477824456757,0.014338094323330023,0.2582289842325988,0.9954598029766781,0.02139699221226323,0.0065841801290457405
69,0.9748342784048725,0.17451428157628193,0.049958091740435695,0.9586794845991702,0.6773972579454967,0.00635069494390193,0.2579339148673821,0.9953097187391798,0.020705024262605745,0.0027040754278744353
70,0.9747636057140818,0.17459385489930865,0.04995316041598094,0.9586002103005661,0.6773868448311855,0.0002275421539855942,0.25794590725407185,0.9951644722532068,0.019756238262099553,0.001239580159572389
71,0.9746455773807848,0.17472651186473348,0.050032673771671886,0.9583211246521421,0.6774017022965445,0.0018421155555053432,0.2579742887986493,0.995025088805838,0.01989238826264094,0.004854032717452327
72,0.9747115602908787,0.17459203244855062,0.04979671839879596,0.9585293458439819,0.6770961507692428,0.0045886918754769026,0.2578630255579829,0.9948911245139913,0.019809497385971542,0.006650287640341705
73,0.9748854485547391,0.17460075891602184,0.04932569189053264,0.9588217277234486,0.676710433626068,0.002586972127108263,0.25783395088966077,0.9947618176004831,0.019792361181951202,0.00362745693406098
74,0.9750304027027729,0.17461196177562643,0.048925132308270815,0.9597662678652,0.6763854042906832,0.0027838479734485677,0.2579395615561725,0.9946389135560736,0.019787967136521215,0.004339102290094963
75,0.9752455748908992,0.17433030928842216,0.04872162164939373,0.9599824607692866,0.6762922799100345,0.004114092053611598,0.25807935763252776,0.994519839624909,0.019788406368002935,0.004485736503770956
76,0.9755116980255099,0.17432434285083276,0.048161559227871666,0.9605200837154233,0.67590089337248,0.004724883753759587,0.25824066470030976,0.9944058237921748,0.02112576641028473,0.003518446632844408
77,0.9760932794024872,0.17396119724943176,0.04770070145072541,0.9610216564808205,0.6758105737087802,0.012467862520461049,0.25863026993228,0.994291467941252,0.020210106771114976,0.006721474299851564
78,0.9769073799280675,0.17363047170468224,0.04629796070272321,0.9620534179372897,0.6748508929698452,0.01331793468035263,0.2591833641456485,0.9941749962851858,0.020570312119560535,0.006870534941877838
79,0.9779054933813298,0.17316411836213738,0.0449836777126989,0.9630249501246264,0.6740631823464257,0.017683400310575106,0.2598078556258634,0.9940563689368678,0.019956239825136994,0.011324030686826182
80,0.9787589375613338,0.172584804448701,0.04378812061006427,0.9655256005369471,0.6732993371356006,0.016018469170031687,0.26054341153789323,0.9939339545411257,0.022018763092746894,0.00917843137883206
81,0.9798657623290862,0.17216230627080037,0.04208317469582177,0.9677537020211238,0.6722302611323018,0.022866569580649566,0.26133235628935453,0.9938068926632658,0.020510326023302033,0.0115958503223014
82,0.9809200285209863,0.17130593412128148,0.04096631472965804,0.9697036183672939,0.6716499101431531,0.0234717626938365,0.2621727294224359,0.9936782365118111,0.02052806843773258,0.015662098343422744
83,0.9822970341921924,0.1705853495901572,0.038620500691104016,0.9733476587350414,0.6699569836081842,0.024854396167379875,0.26291712088633484,0.9935456553831653,0.02195688199173132,0.012949307457810363
84,0.9839005098035036,0.16947814316988707,0.03599438336871564,0.9772337756889372,0.6680144574836032,0.03035711803168413,0.26356314653834545,0.9934098906968155,0.02038016768726307,0.01954824637648837
85,0.9851093857792974,0.16881904907026699,0.03391254822959413,0.9801880608051277,0.6665310498112629,0.027235158320077352,0.26417084895958426,0.993268669269613,0.019943664572374138,0.012029807113123117
86,0.9866332508486372,0.16761682876010203,0.031133593858242877,0.9844652771522951,0.6643832985387028,0.031067947694425835,0.26473068184750115,0.9931249999037182,0.021711624025879055,0.01653546924096655
87,0.9879127819130685,0.1671386111658818,0.02835797238204042,0.9871496831062481,0.6621996996772237,0.027804708988006646,0.26504621108129267,0.9929796709179575,0.020365126857481344,0.012832572597727044
88,0.989392633383989,0.16723558245371245,0.02348953081637934,0.989833523802172,0.6580900069707869,0.03906802134320209,0.2650218773385398,0.9928323307223496,0.020248826463884265,0.009442138073874649
89,0.9910881945844423,0.16746696443938575,0.017602039554429096,0.9926802433149878,0.653016268027322,0.04775409938313916,0.26489532220257495,0.9926843894186339,0.021467679001377533,0.011410402758614371
90,0.9931588431691875,0.16801558558584354,0.010044325704224775,0.9960666152352778,0.6462910429324802,0.056978455557252304,0.26475153155164177,0.9925351865731302,0.020850315589145872,0.01677590579485396
91,0.9952741797744916,0.1685592958493116,0.0021328488403774106,0.9987306073088652,0.6391572001145461,0.060248270256170945,0.26461644150005875,0.9923854357962937,0.021492735882689226,0.019479712384992902
92,0.9969319687327591,0.1695783499468395,0.005364056677929778,0.9999999237700932,0.6322835971120669,0.05821998958697012,0.2646866256368383,0.9922359091293783,0.03216312501728545,0.011644403375377648
93,0.9977498849935582,0.17097120016855344,0.011173633013495034,0.9997361911067758,0.6268512988930811,0.05016817827869674,0.26485015984225363,0.9920894270309685,0.020831086063067692,0.014954629804268897
94,0.9982023365860776,0.17304247424953753,0.016482016738787474,0.9993592295702136,0.6218842600532523,0.04715161788683898,0.26498316425221735,0.991941580795002,0.020921884381932765,0.017240094772380407
95,0.9982039735044025,0.1756062098068556,0.020850626059542743,0.997971196691024,0.6178017971389324,0.04292886985318808,0.26520576258914225,0.991794215611986,0.023507931677141602,0.02498210859781104
96,0.9981416994038131,0.1778538744092195,0.024831089132008464,0.9967253866108806,0.6140070831471746,0.03965320196237695,0.26538662192992263,0.9916470794593504,0.02292464661395184,0.028486839281137377
97,0.9981411944855,0.17951113338738037,0.02866623117416308,0.9957130107063926,0.6103269243767799,0.048409101020383184,0.2657831002073188,0.9915041487998464,0.025988729867716866,0.035596111404342996
98,0.9989621160758411,0.1798863542299648,0.03343505998583837,0.9951437035845405,0.6057479057676948,0.06249861486433564,0.26678809250545293,0.9913664636728581,0.026827564203224387,0.050292256605959706
