Frame,Center of Mass distance,Symmetry,Grounding,Arm fold,Leg fold,Kinetic Energy,Potential energy,Bone length coherence,Torque,Center velocity
1,0.9296795749863133,0.17460965918039928,0.01697179939533978,0.9344141908225959,0.7335187877747451,0.04112101976449003,0.24563969417874718,0.9999993915602554,0.011994565203044512,0.020532966661080045
2,0.9323925084149786,0.1739122806701041,0.014154191557482047,0.9385026177312764,0.7288056076347688,0.04112101976449003,0.24563969417874718,0.9994548901685028,0.011994565203044512,0.020532966661080045
3,0.9340313128177428,0.17294765736904927,0.012440503324263847,0.9416673687962258,0.7258036615332238,0.023756529121626797,0.2465187125370839,0.9989154735939588,0.011994371973077365,0.008420812418863709
4,0.9352163565707663,0.17170572670317247,0.01146154864844399,0.9433062516787006,0.724188832197764,0.017601805082055593,0.24728986797025865,0.998310991717422,0.010741530760483594,0.007664099003551459
5,0.935027008332123,0.1707449214358254,0.012672460063375895,0.9436492484092888,0.7268206442612484,0.013273818831307163,0.24806078275254057,0.9976465908956941,0.010725574713358913,0.002566671030527914
6,0.9338011589134718,0.17076091792406425,0.01468701767341122,0.9420024683272347,0.7308069388475555,0.02171558821564105,0.2485862184527529,0.996894191794475,0.02077611366035013,0.01387199780975958
7,0.9309456297511581,0.17285656647608996,0.01750362177690105,0.9361801023665967,0.7362368545982154,0.03682128674632746,0.24890922175185476,0.9960522267177105,0.01152878205920347,0.033935714573518655
8,0.9269280781365344,0.17507872938422014,0.02108282874985153,0.9304565703962825,0.7424885456558968,0.05259819283995547,0.2486982452825154,0.9951470657494818,0.011339431312683931,0.04152556217662287
9,0.9233308920472477,0.17497236368531233,0.02508308660684131,0.9266440438044443,0.7495724123844794,0.04891215663185795,0.24804821916429745,0.994221342572362,0.010288612062263544,0.026660446982560024
10,0.9210442080066622,0.17380423309856294,0.028058939441158965,0.9245234687975558,0.7548324177589255,0.037153996017643666,0.24766567915572946,0.9933546898583083,0.014441870572313394,0.015021043761209309
11,0.919309337756095,0.1720268271551334,0.029486751579682426,0.9227516272364973,0.756541421979961,0.0438432476666765,0.24699550104660684,0.9926183067623012,0.011173923761950259,0.03507105364477331
12,0.9181835074705406,0.1697094744626916,0.03041529997020774,0.9229832404660763,0.7573222503656648,0.039189609020461626,0.24596387683931342,0.9919931628608196,0.011457949952329575,0.03517799152271967
13,0.918327221591936,0.16815791800426275,0.030492948233584578,0.9248599836492754,0.7572518119790189,0.027666927481469726,0.24529900025334125,0.9914900849806921,0.01712494981134155,0.034148996446102364
14,0.9191294338670156,0.1670323977688999,0.029592865122402678,0.9272440971446017,0.7554640281035029,0.018512564878909493,0.24534288812064844,0.9911176483199498,0.010512484993948641,0.031054496096358297
15,0.9201363796006031,0.16575056289039908,0.028408223317884056,0.9294340848203557,0.753073346936672,0.016786664724460713,0.24545073215684024,0.9908289158080795,0.011445968679323265,0.01971421610331755
16,0.9208520601317258,0.16611251993142673,0.027051535169345248,0.9302675014396473,0.7502712796924528,0.015643619012812894,0.24517662431573078,0.9906263117888693,0.010403229430486143,0.02162395293441523
17,0.9208784638986648,0.16599390765661637,0.026585786739229574,0.9306914547409458,0.7489405621922792,0.014385946122789813,0.24472587067505003,0.990485829063341,0.010766632144278135,0.017028945425510984
18,0.9216495157892898,0.16649823165736344,0.025903796286201354,0.9309872362210792,0.7479460907739783,0.008780718156395917,0.24473481878808695,0.9904003589797932,0.010226541812979216,0.003792253002433337
19,0.9224548081428052,0.16669190053318997,0.025365339847801455,0.9321793780408059,0.7472329379094148,0.010888141583439126,0.24538746720854965,0.9903879627305927,0.010346605549544868,0.011056466665397486
20,0.9229553287834495,0.16729385919011175,0.024839712389292914,0.9325905737592071,0.7463337884656188,0.007742315636491104,0.24577146318803547,0.9904377792444546,0.010828645624307288,0.0024301340545162184
21,0.9235101387272417,0.16780095334908077,0.02415767488621614,0.932855710400466,0.7449913875321112,0.011105912996665674,0.24576760015555846,0.9905702990905605,0.010270593938551455,0.009290229612095765
22,0.9236480669333144,0.16831843145876593,0.023916323820753323,0.9320266356534519,0.7444214397244918,0.012349491203549296,0.2455341963528029,0.990740852850679,0.011095951260432115,0.0027995553957391654
23,0.9234797008350919,0.16947575321727648,0.023698450729492646,0.9302944459741842,0.7438527143200814,0.016363989610346935,0.24495953584732358,0.9909564886956966,0.010536603221907359,0.002309183060453737
24,0.923170589861732,0.17081697700024048,0.023421545510712224,0.927373358361582,0.743009669209621,0.02110457296000782,0.2441405183276184,0.991217232298585,0.011575767625250913,0.004931899117549547
25,0.922494560147625,0.17211666703515643,0.024094894438165686,0.924477826620262,0.7442897638229807,0.024659037220979504,0.2435749043922846,0.9915122643168075,0.010927829644376608,0.007814344612711906
26,0.9219855792005686,0.1729590853090964,0.0245517190424156,0.9200382898416678,0.7451138408620496,0.027290459728613856,0.24323246449845226,0.9918505271526596,0.01026735615524209,0.008231912714190734
27,0.9208052150200735,0.17478836800272873,0.02539484022821177,0.9141899929429597,0.7465888739181973,0.030512417355468245,0.2427192860786947,0.9922250396110968,0.010259921578131636,0.013269059578788853
28,0.9189983905499349,0.17604819726955942,0.026853109431465225,0.9076619894456317,0.7488669035817338,0.03429895502971565,0.2421033630632357,0.9926256010046833,0.010703452093166206,0.014355634377532338
29,0.91750909405979,0.17689645132800097,0.028588722987285105,0.9006126231007051,0.7519620640403685,0.0330512137787402,0.24146953140654936,0.9930532547759324,0.010249914543793407,0.010928700417125146
30,0.9167297973315482,0.17886383798097732,0.029430824755363714,0.8937712941426117,0.7539303966739224,0.029205441472548065,0.24138340016939844,0.9934942765637149,0.013912309499413385,0.013540238874301839
31,0.9160332582301116,0.17973687074556788,0.030469235009139877,0.8881900229839557,0.7561155693328817,0.023493555150001587,0.2416081556275538,0.9939569940958211,0.010526034982927564,0.011762454074853929
32,0.915953993719197,0.18047434199692958,0.030842200743610663,0.881857902564047,0.7571959111085592,0.019973157275712323,0.2418577571829623,0.9944402975051374,0.012466954570481721,0.00481196799110727
33,0.9162522484050312,0.18119940520276648,0.030477076683890072,0.877399288758211,0.7568556050817635,0.016388048464769506,0.24211175136504962,0.9949359787835738,0.010838111370925899,0.004537304056231383
34,0.9169204266530695,0.1811986490766222,0.02976800108627445,0.8746250160615687,0.7558345819697246,0.015281035286085445,0.24211096495729684,0.9954382064927355,0.010168941636566262,0.009909756560660702
35,0.9174795009039208,0.18141946425295816,0.029242075644125464,0.8725760604298882,0.7550981627183625,0.011347489874372107,0.24216669636344026,0.9959471165239647,0.010779675967491522,0.0033064672569567007
36,0.9183325117883284,0.18151522241924523,0.0286313973812759,0.8703148691516706,0.7545211624031773,0.016184689497200148,0.24263613897694522,0.9964494816723618,0.010641726578803632,0.007194356625458664
37,0.9184634571268503,0.1819315432157683,0.028464024675406766,0.867528114287338,0.7544077683556999,0.011105157904600609,0.24314102039306953,0.9969376167785056,0.012850219998751532,0.010561365323169649
38,0.9187962496492169,0.18314748993129726,0.028305293495112505,0.8659106851151933,0.7547010441791125,0.024703192061639134,0.24394656483696647,0.9973956304041265,0.011256631907168328,0.01610552375988734
39,0.9197065083042446,0.1838737661259451,0.02789862424256502,0.8665765095762541,0.7548027574482054,0.03639159332018967,0.24538317032964782,0.9978091999942451,0.01092088686576977,0.033559759718086314
40,0.9213830776561128,0.1838513651979928,0.02682149179887222,0.8708360266518942,0.7537464987002139,0.0441624196750088,0.24695004051892,0.9981749558827013,0.016888111692861342,0.03895866013233628
41,0.9245725783701901,0.1830495640748615,0.024175444121200217,0.8789451353623342,0.7499232848359383,0.058459939520479336,0.2484144817419391,0.9984742590452828,0.028278087189780716,0.04749855690988036
42,0.9303601315311495,0.18148778639115898,0.01750352767680405,0.8917935324393135,0.738105619512624,0.0932156077614845,0.24905302560954518,0.998704875547467,0.03925490625133384,0.04489238307685102
43,0.9401538070541844,0.17688140515927056,0.005937371087191827,0.9102631223266535,0.7162314643619754,0.15732095625519496,0.24891403794235742,0.9988890755633731,0.026507427815456442,0.07976293363363413
44,0.951537334333913,0.16983428061599334,0.0095638476755367,0.9353103283763029,0.6842147183787839,0.20400344177018495,0.24803547343561222,0.9990635799515183,0.01132751042831593,0.12620255816754736
45,0.9610076966661965,0.162228513189783,0.022923818730965096,0.9579763921744474,0.6555438201332662,0.2131635119351907,0.2478628038945395,0.9992408334114687,0.02300408002982802,0.13146650703811183
46,0.9670489689930815,0.15640710217589562,0.03278913175060004,0.9719188494179722,0.6334696821087868,0.19182527179491085,0.2495465214220495,0.9994111922776352,0.044039440566602105,0.12350765225666843
47,0.9689740690818709,0.15441971205591556,0.0390959241352755,0.9775824632151684,0.6187859341458994,0.15356568628709322,0.2522369289947187,0.9995667041409043,0.011912030714980803,0.11021543049962804
48,0.9694487003216588,0.15456063536346668,0.0424054559135653,0.9734018556597256,0.6112358025139483,0.12741915859327227,0.2556657260438851,0.9996766845184727,0.012617642089104602,0.10404530431744935
49,0.9691345997918678,0.1568766054989797,0.04395465717722251,0.9607324370813423,0.6082758209543665,0.14668811990914268,0.2597336868826134,0.999685548011169,0.019109203667268294,0.16998427055118798
50,0.9679209836600555,0.1606985803876194,0.04446627940462712,0.9435802714932005,0.6078921884446519,0.17364318714323362,0.2646928520942941,0.9995598495404823,0.028036692393786183,0.2112378548220971
51,0.9648432562535025,0.1652581264580514,0.0451213885966115,0.9254054741031066,0.6064336707168873,0.2118676651598343,0.2708736716889177,0.999280819504016,0.03587644655613964,0.2476088565505201
52,0.9590157298628836,0.1690589491026236,0.04548836329157322,0.9057715121397195,0.6041032539747432,0.26615125747677404,0.27913856780580576,0.9988186107639356,0.0414410179279564,0.29704399055396313
53,0.9497986025895996,0.17139308454885324,0.046400177548181466,0.8892802353465417,0.5977433455792011,0.3071808668907231,0.28962480348848263,0.9981541035220872,0.024079851654976076,0.3338951783726235
54,0.9378622918689239,0.17534863981304716,0.04809912343286918,0.872703435700223,0.5877987665384975,0.28336380747614187,0.3001433615066656,0.9972922787468981,0.01813520958482241,0.3152683446061731
55,0.9236950072390334,0.17997249484429104,0.050471716228651015,0.8554944244746667,0.5741167335967254,0.27275866982378477,0.3096620347743393,0.9962745607706729,0.012204868182597844,0.2812393441657552
56,0.9059155455449184,0.18642662389153747,0.05249709534984168,0.8377838474936999,0.5588821096371063,0.2867624953569094,0.3194594649083018,0.9950968942576599,0.03334722222030783,0.2942809137024022
57,0.8846299057972318,0.19466263620801227,0.05359009934322898,0.8199734537509246,0.5428898717141779,0.31027403197262754,0.33023863547423943,0.9937476493769566,0.021326236768135765,0.3265599078174248
58,0.8598558949743602,0.20356209470805414,0.054048476599079354,0.8033301533332892,0.5249998085616961,0.3258051885273473,0.3419782378466298,0.9922287643062137,0.05034920168172847,0.34060903709272233
59,0.8292819191045928,0.21218856426183372,0.053524731142510946,0.7889126305565589,0.5028524556130423,0.36878017050380807,0.35514662477633946,0.9905255172100804,0.054657111088504955,0.37646559501275983
60,0.7901561554167078,0.21944467613866026,0.051427145880220064,0.7825487729422559,0.4726051802236194,0.4171044358644239,0.37058675081946707,0.988658426758302,0.054463564515204364,0.378609609467944
61,0.7383409669425568,0.2219926500464234,0.04725429276197743,0.7879280892224504,0.426690383770442,0.4789554860602708,0.38792274071163924,0.9866624877889432,0.15246779338334931,0.35671530858243466
62,0.6751830645113109,0.218397166061365,0.03697950317023464,0.8085923801625768,0.37041350115465105,0.5689510852709817,0.40810742704265107,0.984516278801316,0.14470531708353077,0.36228618885327535
63,0.6078302953936406,0.2121037518690274,0.017630092307272856,0.8371007482761748,0.3157719064160386,0.6423439937042446,0.4341570792088658,0.9822366672608813,0.03233474347770887,0.3704045484137265
64,0.5495002340652121,0.21157317555749403,0.0042292033929977975,0.8559231131701145,0.2683219316440186,0.5850244380056109,0.4631429261494487,0.9798448799005899,0.11949353247817891,0.31523158030051013
65,0.5041878471568075,0.21638415056106156,0.025065082121614783,0.8519751839918849,0.23330755797102812,0.4937810511862377,0.49055958602317096,0.9773600169981396,0.04329389384272671,0.28127291132329335
66,0.4723354104239124,0.2293259069655173,0.04260662623760791,0.8272398050382272,0.2118785684228353,0.4400561097641817,0.5155765353038599,0.9747344331631205,0.04860394764260257,0.3182713123960293
67,0.4563731661008926,0.24567281111312908,0.052579213367826116,0.7878378222292286,0.204139515312942,0.3510641524974669,0.5356988814415788,0.9719635241665964,0.033720219766031324,0.3532881706728248
68,0.4460740320850097,0.26363204296733916,0.06090622505170674,0.740964471653747,0.20258033645994658,0.3618581941389091,0.5524509461026222,0.9690286346674046,0.03053916198529621,0.4055570211932624
69,0.43533918727436216,0.2830209300935235,0.06956374764296036,0.6965755608523523,0.2004572500688184,0.3840116148903629,0.5697234069955136,0.9658916885463751,0.036960858995945686,0.4395093582468495
70,0.42389040338961226,0.30350531435991596,0.07996565078240463,0.6563726953252174,0.19811985636371177,0.411838055980169,0.5887375460933668,0.9625011211440695,0.06293910482073804,0.4714730773378701
71,0.4101483905753436,0.32471821348164365,0.09359518724904714,0.6241363134818867,0.1934339664508261,0.4564183880589705,0.6109252714020079,0.9588013355491777,0.07129656421642488,0.49705922893922533
72,0.3917410080111038,0.3502076798971516,0.10965062421642352,0.5981659580753538,0.18118028626960755,0.509236567506355,0.6360731094858256,0.9547412388003462,0.04528084461132166,0.5226178892845427
73,0.3715645981022133,0.3766233437344324,0.12753067774803506,0.5776299047326875,0.16431832991688822,0.5424411887322538,0.6627295085258721,0.9502997627214161,0.07339776320915094,0.531706942094931
74,0.35124994793216413,0.4019273616784045,0.14877341392939342,0.561913839017094,0.14501481497065238,0.5863559587167142,0.6913489603589343,0.9454414676701556,0.07114023926309339,0.5542013472720214
75,0.33092837476745374,0.42559998696348794,0.1739669583667666,0.5505460524017456,0.12196188899333377,0.6326349196399601,0.7225768647666069,0.9401232614194921,0.04902507483093976,0.5705170560699273
76,0.31272988314757466,0.44757264275097486,0.20075393895506316,0.5441445877617672,0.10454568887337015,0.6597577001254951,0.7544990344543581,0.9343400923255069,0.02126233566037632,0.5708369144070228
77,0.2971330134436259,0.4658519324380649,0.22782989309958065,0.5397894955451428,0.10273705482197595,0.6694130907227435,0.7846230330437075,0.9281185872239242,0.09075792194311684,0.5553213570669397
78,0.28475129123649373,0.47899264448266266,0.2535559891942667,0.5374693570373928,0.09788948116396028,0.6201778898719513,0.8117430690628458,0.9215005692165933,0.11275805444205807,0.5063567731637869
79,0.27080462561635077,0.4846599858629695,0.2816594850313566,0.536920103874291,0.08653567036883261,0.5803143899290076,0.8362493686400314,0.9145528358207079,0.029448721268509524,0.42548002068614604
80,0.2580921112693042,0.4822253143284847,0.3123398022414233,0.5411706945793752,0.06738183789996369,0.5737171628207292,0.8594180549368636,0.9073411025864725,0.03595393014498844,0.3480428544072467
81,0.2478555582240294,0.47215917557834747,0.3455434370776462,0.5487333965005546,0.046240574829168365,0.562772989642366,0.8823910392893439,0.8999612863903947,0.03709638327983649,0.30662619726069995
82,0.23848879831409106,0.4554094413228929,0.38161793648579306,0.5617820399452138,0.08731917874007732,0.5497345520886731,0.9063617253690915,0.8924414041974873,0.14276173340248266,0.24913513754727
83,0.2368346670605602,0.4334500793609617,0.41879016841720174,0.585146034500998,0.1303818464224423,0.6121705206445708,0.9312036980513372,0.8847529832678346,0.12783504812748686,0.26939736540985426
84,0.2442320356425419,0.4045316024819458,0.45843955403551173,0.6127144472075704,0.16944472335847405,0.6771008973275752,0.9562947202114095,0.8768836228350139,0.04885767782070487,0.30639351777858337
85,0.2554211549700687,0.37864006523124905,0.490898549318708,0.6336906336556727,0.20169068478483393,0.6325412825735054,0.9783053755285064,0.8688418570751247,0.08070410368312643,0.27518375562943115
86,0.2681331073619022,0.3601742718384176,0.5138712510896474,0.6457000055065875,0.22434268223251247,0.5639605877965881,0.993207343987859,0.8606312333121542,0.06417396097228384,0.2726015941694765
87,0.27817149342935643,0.35037146649861506,0.525486327967189,0.6463463849442517,0.23833159065000456,0.4996203369162012,0.9999999899111239,0.8522638330868035,0.11241433879777658,0.2767836948425852
88,0.2843403811889888,0.3499103925254935,0.5262726126943954,0.6370827779220437,0.24803483142941668,0.5560259919875983,0.9974662961877278,0.8437240820355216,0.09425668600237232,0.3520610200044151
89,0.2853041761994119,0.3559651403162922,0.5179230209080715,0.6204428998245183,0.2577157067296039,0.6176036427103325,0.9853884538073775,0.835013312966282,0.010682448876784035,0.38584677073466295
90,0.28413311933477536,0.35929192324861464,0.5068869066398521,0.6024571789505725,0.26887898441709474,0.6231911819752325,0.9672224543532874,0.8261653497631556,0.009740539020023763,0.3426583740652019
91,0.28147964738921594,0.35931809244394025,0.49549667018158683,0.5820252401911477,0.28501312459367756,0.6413578050873805,0.9463830142697457,0.8172031371772334,0.05019926745659645,0.3442236935641813
92,0.27782187635800215,0.35672708687073623,0.4804639718809981,0.559850155140237,0.29986149465199446,0.6719818121973478,0.9232356388967013,0.8081322011500938,0.05897493430874855,0.3618058611684045
93,0.27390900703164756,0.34948682853695584,0.46615767927922314,0.5376619664181473,0.3166256553513973,0.6498348974159182,0.8989590823112739,0.7989616399756208,0.04951607846704188,0.29360590107503043
94,0.2698348484630079,0.3408217957050412,0.4512884622534088,0.5156339532507938,0.33183163100572727,0.6148526291672471,0.874481620121124,0.7896942478859068,0.004867752217088883,0.2641308918290312
95,0.26517477253474403,0.329098082164697,0.43615366730799066,0.4959430819460524,0.3483115421140355,0.6189500026553126,0.8491671744335711,0.7803311719453414,0.012289980600110034,0.2347417064975818
96,0.25920415228312926,0.3130982918215196,0.4229994735605208,0.4825976632915566,0.37015656412904685,0.6265633085010265,0.8238011565894835,0.7708839174453064,0.00621569616376479,0.18652052841507552
97,0.2518603762193862,0.28932970757643023,0.41705537823723066,0.4795032537028907,0.40264996758346405,0.6495015036127526,0.8006376669616786,0.7613694126977384,0.054982710221270076,0.12103016652600777
98,0.24362271451717196,0.25652796170371156,0.4204551872960825,0.49234232120676247,0.4461969991054335,0.726538906625907,0.7816735226483589,0.7517993744661491,0.23170558261471508,0.1293035726942774
99,0.2351566403145714,0.21372136398618571,0.43118087318596415,0.5241058626264175,0.49580972309373617,0.8909127233320367,0.7654601375710636,0.7421319640009705,0.16486576826781194,0.2646014543434274
