Frame,Center of Mass distance,Symmetry,Grounding,Arm fold,Leg fold,Kinetic Energy,Potential energy,Bone length coherence,Torque,Center velocity
1,0.6125805459281642,0.332232448669427,0.9999999894099522,0.48161983530374236,0.0,0.0,0.9214709260681674,0.999998055623949,0.004328212102976352,0.0031230961910232785
2,0.6107589319240554,0.330094929420451,0.998035921996288,0.47846545872122664,0.0073660370681772995,0.0,0.9214709260681674,0.9981229029339774,0.004328212102976352,0.0031230961910232785
3,0.60753443238818,0.32666761257650667,0.9954388713063819,0.47449390992316026,0.01760438018053786,0.004833065740539334,0.9243422615288743,0.9949826755066756,0.003141442883206223,0.012531913095235003
4,0.6037527659260644,0.3220989981621048,0.990786317260627,0.47023165221077834,0.030986373987238622,0.011003551697864843,0.9286988581706916,0.9906450881610829,0.013745393184618374,0.016308295711712363
5,0.6007612042274524,0.31399664058415266,0.9828993672053744,0.4678570508558641,0.047694460530325535,0.02421696531569336,0.9358464127473571,0.9852125632173697,0.023503066162971202,0.025530114910860376
6,0.598235028437463,0.30227644068896936,0.08698404908975267,0.4681816222555308,0.06667793982437387,0.0423318854324552,0.944513502591413,0.9775108445944025,0.03958647213486484,0.046370258958371754
7,0.6009706222616306,0.28679408619353214,0.10505479808378845,0.469052402383474,0.08378844526317313,0.07424065898378286,0.9566384568144967,0.9666911933674224,0.015452149577615776,0.0844266553116651
8,0.6053458995992131,0.2685201678185836,0.12232834713131727,0.47648316183693656,0.09986751880928121,0.08295030876805753,0.9697558412318713,0.9531420544793585,0.022260464549348314,0.09369780480257088
9,0.6131967923298055,0.2475409803709982,0.14124258451752092,0.4874469547761584,0.11438904146070551,0.09902175414322646,0.9794916021352547,0.9368399921089483,0.03717333720539055,0.11058178947494084
10,0.6269603190731713,0.22341885131480033,0.16428519678324205,0.5028393011914157,0.1293386029806192,0.1259168073407322,0.9886730440901336,0.9176474752593183,0.029727434613637915,0.13762366446200394
11,0.6449814693826551,0.19802988295255805,0.18938933369431651,0.5253410194294911,0.1457261950902435,0.1471575513973774,0.9965373054340606,0.8960904101081651,0.03315832489589824,0.1586583213434534
12,0.6668823206091797,0.17370020663026578,0.21577600179139392,0.5562700314615026,0.16224821433678632,0.16931745920722693,0.9999999832969354,0.872513828736605,0.002422512412070453,0.17733552324139487
13,0.688639133961926,0.15649256581364057,0.24042531045989143,0.593982223628885,0.18033878141527027,0.17134521512045156,0.9979800045577398,0.8476908049685721,0.008014416801824504,0.17908744990371625
14,0.7074175799576764,0.1489261077187376,0.26214380603063864,0.6338508100043089,0.1976197895472323,0.17516070964106772,0.9886736576311715,0.821733109469195,0.0,0.18341389953975232
15,0.7256045209183858,0.1526886670234308,0.28192214542056704,0.675528467726497,0.21336347587830987,0.17500785278028164,0.9725825318286528,0.794884986675942,0.009465792519839523,0.18205233851684788
16,0.7475133013552768,0.168279818030554,0.30184161117473357,0.7188116702423673,0.22664873568124302,0.1819264499304936,0.9527653768704137,0.7675955950635,0.015373795560319198,0.1954220735556311
17,0.7654647645381559,0.19557582950117047,0.31785689507645887,0.7613645793990204,0.23703529385299543,0.16807236277694726,0.9297095222671033,0.7399662502687157,0.0014309126409358772,0.1774632846146978
18,0.7836184035736548,0.2317789526294338,0.33213307681936627,0.8056660962341,0.2443344859013688,0.16445181261133646,0.9032238020639582,0.7121251549562007,0.025458290296826763,0.17613876582485552
19,0.7978200029510324,0.27062781880927944,0.34294613703567944,0.8497779234377381,0.24942051377253327,0.14428749366198523,0.8753860430001593,0.6842722772563039,0.02139477008394988,0.1543880486925475
20,0.80880838504496,0.30863322796762266,0.3515790452028381,0.892617147644138,0.25326477080842874,0.12678857051380268,0.8485904177549662,0.6567415080884257,0.03082963466954311,0.13506050736338063
21,0.8191669380867495,0.3422622760689679,0.35773747122832217,0.9302064185864563,0.25106785870888904,0.10215585879888538,0.8246918471621887,0.6298443840648875,0.02794489720003406,0.10893039822497462
22,0.8189190945832179,0.36962215082093886,0.35982766917776987,0.9607793945387602,0.24951731084817094,0.07872988273776622,0.8029868675420772,0.6038264188580554,0.02106909176203209,0.07996349356135583
23,0.8137646275897061,0.39093246108263086,0.35997139398409916,0.981481614098324,0.24923104501660887,0.06149918862533271,0.7824038438854152,0.5789354897162751,0.014159570768755618,0.06702714312569374
24,0.8043634845731624,0.40815641565157923,0.3593420422654789,0.9904484941508472,0.2518935173882946,0.04877028482246075,0.7647928128444311,0.5553288446333928,0.003926918811584841,0.056170224850039904
25,0.7842315398575986,0.4248837535816941,0.3568114379488364,0.9899172214361548,0.2589329016527743,0.05660874915459175,0.7474749967821268,0.5329539560197786,0.014493390212843266,0.0617950873878613
26,0.7515953954512622,0.4435414878328196,0.35118621780609144,0.9902086181747478,0.269365220434707,0.07204946166415747,0.724645416534455,0.5115594776368989,0.015473064134155036,0.07208808135775055
27,0.7055444796044237,0.46312593712880296,0.34217999664664667,0.9926917568340089,0.28451052332483856,0.08875349727064474,0.6963142240261266,0.49094415344744535,0.005763872662510301,0.09244287663628716
28,0.6348931476498528,0.47566600701664735,0.32511405512165426,0.985817742103381,0.30906652946190655,0.10719024483436679,0.6645652416697803,0.4710113366927305,0.010473526641262242,0.12067703228782928
29,0.5499859688703717,0.4729330065309393,0.29933811483562456,0.9581994986327926,0.33683821189820845,0.13073890031189758,0.6292342403662413,0.451730563848372,0.04187232746751771,0.15876999812278905
30,0.4582614389620751,0.44999153227671634,0.2627833915064646,0.9031226641860447,0.36039317159822853,0.17538163025192777,0.5933858466404535,0.43325252508208006,0.06337157612124299,0.22664686722629981
31,0.36811675526001064,0.40933764542645634,0.21744362418242874,0.8204196525532155,0.3786376762175724,0.22916903249644077,0.5621150656293962,0.4159945132135481,0.09884030909171328,0.29536968718336165
32,0.2817381621974646,0.34469535237088195,0.15763914370597254,0.7061092129577777,0.3900092093334692,0.3123877527752484,0.532162897509141,0.40023152870337975,0.15407014621249035,0.3809482729280279
33,0.20768737933808384,0.2486738374779072,0.07052842491239862,0.5380637249984038,0.3991852389211608,0.4448676552276161,0.4932438319059594,0.3859151360657003,0.19173031029581866,0.5191689133252482
34,0.1942110920436437,0.13143334279714333,0.050977983155740786,0.3063856552348191,0.40513943149654297,0.6089426793729634,0.4389283170184277,0.37332653113683606,0.18012116442957152,0.7058640156393213
35,0.32935542426714065,0.062491580056349014,0.2063677839000584,0.032016074217549796,0.4002332804781825,0.7713860326423193,0.3674903056977859,0.3628827398017239,0.003647853651006287,0.8992751350221523
36,0.6224969935299626,0.01581367991737312,0.36401069482528786,0.009245692795764635,0.43573778916138034,0.7984792847611789,0.2797384666212819,0.3544759826248039,0.23248791024502818,0.965656908805944
37,0.8574378697193821,0.0,0.461070653590231,0.012531612093664475,0.5768555250328233,0.5610902308164952,0.1957995420059349,0.3469151592080519,0.16655315230264753,0.684476088870691
38,0.9774951043097124,0.02762339627489501,0.5103311604432205,0.030245652610491416,0.7124708446104876,0.39256714172888946,0.14144052419685707,0.33981245888604744,0.10598478287457753,0.47485116120746346
39,0.999999994464935,0.07849334438119014,0.5308813240968497,0.03684327535010899,0.8397717257024129,0.28365035783044096,0.11332018987670517,0.33282083406543606,0.07307115045563416,0.3340436983083402
40,0.9098279627220723,0.15367064829782523,0.5249904645581962,0.025224029239518723,0.9436775386465235,0.22064062294567766,0.10137182287323843,0.3253374749834288,0.10073754752260462,0.18520337366903264
41,0.7299241619438263,0.24039285049107031,0.49857671283310967,0.0,0.999999940525051,0.2960764622123466,0.10147571112374473,0.31648382400481334,0.2756359155633663,0.11142466606493003
42,0.5222747712484395,0.31524864626191135,0.4616143297684115,0.15656369475366366,0.9957631476295244,0.4516369223770728,0.10374407992230587,0.30582659839423887,0.36165059855559206,0.2360213142016897
43,0.31225858100508214,0.3907986818847038,0.40833267290533454,0.33192083940454903,0.9302900764352663,0.617092003359805,0.10621331988839082,0.2932276325060389,0.43422861778541705,0.4016423459832787
44,0.1347873204111787,0.47380830524314954,0.3221892876629329,0.4812915809703875,0.8118596056432371,0.7988616916399414,0.11848195920782677,0.2787342349705418,0.5463079302508047,0.6656585169459597
45,0.07817577287801182,0.5975113798159547,0.19400725575953454,0.6070053902208947,0.6306524062143802,0.9999999996507667,0.13836440930176439,0.2620787786529896,0.8026110682245045,0.99999999854905
46,0.15078815864263986,0.7778286307152995,0.08371580724150192,0.7207427156596444,0.44964438285316627,0.8161528621887233,0.12854338592813247,0.2438080128779763,0.9999999999814382,0.9940446052568128
47,0.22894233980218603,0.8988151409746193,0.020476280239949185,0.8386396071666153,0.3602953284341932,0.5170388229509033,0.08553302581115715,0.22499063424565863,0.48878292493357567,0.6816275300110572
48,0.30331753954185575,0.9565121504678046,0.019393164700813353,0.916366353693159,0.293990257683997,0.354123457313241,0.0432175353779637,0.2062271709016207,0.3632684662185451,0.4957115813347387
49,0.3568991535587142,0.9916292043228079,0.04851104936659364,0.9738220581917129,0.2531380086615624,0.24032177765726478,0.013187940745502454,0.18767553096551393,0.2784778058007174,0.34766524160421447
50,0.3915747790136418,0.9999999954189294,0.0659207922604417,0.9999999586366443,0.2272054281396026,0.13159447326916668,0.0,0.16959434360478068,0.23989070178928457,0.17737747289934389
51,0.4055223599135388,0.9917453511933014,0.07702265870576654,0.9853094690721603,0.2174167891132259,0.05263704385580976,0.006356264366317146,0.15221853319421655,0.03423740308059483,0.032704650935802146
52,0.4027725400462772,0.9604044030328022,0.08095510687739638,0.9187664016255841,0.2193100904529838,0.08539831368697066,0.030674275835476123,0.13581152427381957,0.15434951327238755,0.09495660690451234
53,0.3837906539280026,0.9161906965136499,0.08145157976350341,0.8089483491591922,0.22509255249575832,0.1546641964373235,0.0729262397025659,0.12060204023024958,0.15626470691856484,0.21057963388485054
54,0.34986379124979783,0.8612748277015947,0.07873156397597056,0.6682068593721385,0.23191073580323313,0.22585337733686534,0.13823039539000823,0.10683885663295024,0.1631548168189261,0.324993200458971
55,0.2990940585325426,0.8026916644882091,0.07391110952477736,0.5131897497322128,0.23909025849087173,0.2911426902171213,0.2275551426691864,0.09480787947455266,0.1315556660429782,0.4015723639743651
56,0.22908751856882173,0.7557332084473352,0.06512661513344935,0.35479196480647146,0.25152186688904216,0.35001497035395185,0.3391782546971952,0.08480541068764075,0.11975752397156834,0.4836066692622551
57,0.13797255774059405,0.7273796293601783,0.04324705789508362,0.1968725766556472,0.2826998365239644,0.398273755918251,0.45833462977399964,0.07699191772516138,0.020507340245334897,0.5395919137826538
58,0.057231771730400345,0.7190699491589333,0.008152832946404164,0.08782314973253641,0.33171924490064325,0.383633033367045,0.5526709289702505,0.0711417390976661,0.2243327823415523,0.5040127687396132
59,0.015809956736040968,0.7284388301315811,0.025113097536010463,0.09676129781495675,0.38188559187516513,0.28118788265557354,0.6033147269591493,0.06665375939461883,0.3676757987168621,0.3550406543647673
60,0.001986564451021663,0.7380488177134331,0.04505392477997973,0.10551425007563879,0.41541710947888566,0.13526401894592624,0.6186026091839678,0.06282241503936646,0.1259839709557834,0.18691366864584452
61,0.0,0.7383630162582866,0.043125484198844384,0.19702766808022443,0.4206022732974973,0.04501896545803527,0.6230171000374894,0.05902297866706695,0.37314384061783057,0.057695798693413056
62,0.008863162877101323,0.727928322936603,0.01583528873972531,0.29593518665108803,0.40252857008466614,0.15635903297009124,0.6398298013405331,0.05477742887958841,0.11626068626568244,0.111247799668273
63,0.020352730525404938,0.7221591292730599,0.009728219339456633,0.3703354365964487,0.37220374641732173,0.1193924752140589,0.6686489679954216,0.05030198509775813,0.3439380223768314,0.07792856176108455
64,0.013249932517623911,0.7261753400241189,0.0037583838580444026,0.39743444318530724,0.3876402952716357,0.045134351150535115,0.6870734405834296,0.046040076881708025,0.004391384110873356,0.07650103220725388
65,0.007325745060036698,0.7310259796010775,0.0035431062353590333,0.4063517677236956,0.4045729574298,0.02603193589632771,0.6924126239410461,0.04196916564534395,0.019300828284727976,0.050143179986441244
66,0.010727312696445777,0.7331464934352666,0.010467011734216573,0.38690153922922516,0.3959832342014335,0.021655414177375112,0.6985688052833126,0.037980024586616486,0.08149926603917146,0.02272882784802969
67,0.010028565207754667,0.7361069334553848,0.009129652376536308,0.3652647901339718,0.39789656622187125,0.013220326180659334,0.703665611870256,0.03413962231140173,0.006389315500322852,0.011170259564397026
68,0.005846238727920179,0.7383878419876264,0.004982510970803892,0.36170985631987107,0.4094944322069365,0.01680524370270211,0.7043288051843171,0.03046614950639773,0.007084817500762625,0.029241272753706173
69,0.005027974255321567,0.7378651023398979,0.0037000145698356758,0.37322656045789393,0.4126474918274014,0.007212387508871138,0.702301342055645,0.026900107867078773,0.026731504864832542,0.009408781674462326
70,0.0049379129322914906,0.7375426453293276,0.0041425915231951185,0.38984155697942147,0.4143868244848577,0.005670419818448549,0.7007213607515688,0.02341618057685612,0.005410529729687166,0.007620226894405894
71,0.004927024405761087,0.7376970573734917,0.0025984281772797745,0.40404339035129716,0.4159514296320827,0.0015805241693710986,0.6991043412602689,0.020030920298088124,0.011235265475486133,0.0
72,0.0050023331179026706,0.7386696060235558,0.0020883126005676062,0.4147798836861547,0.4163097468767107,0.000995551350637047,0.6963055577888806,0.0167426128928448,0.004225287402233674,0.002832755419028048
73,0.004884886403834365,0.7407481989016357,0.0017716853008113529,0.4213187315353324,0.4165204867205231,0.0025556859351549568,0.6934580379779665,0.01357744738325969,0.004370944854994431,0.003762550235884002
74,0.0047140472096166555,0.7434699976544126,0.0016906083419574124,0.42589538377928715,0.41583236704742566,0.0034702671570400663,0.690384842707616,0.010566093829288532,0.007149834264509842,0.0033097392196667435
75,0.005093574668375787,0.7451944102254405,0.0009946850239486032,0.4269435200260692,0.4149958034170845,0.004800449669241774,0.6867096611175576,0.007700034454080451,0.007526819666556247,0.0009614820078400431
76,0.004613998199653662,0.7473569772529355,0.0,0.4274019682648431,0.41584061175497783,0.003163120525882095,0.6822713525043871,0.004994397909624251,0.005006663587640177,0.004555462078453067
77,0.004497629653853294,0.7492861077290135,0.0007348964708747319,0.4293705408583285,0.4154623099587835,0.0034081869622927764,0.6793957619100769,0.002438579637828711,0.005532709255688215,0.009773935233657554
78,0.004656361409444234,0.7506595426262775,0.001220634695276647,0.4311952986617425,0.4155449073721391,0.004043885004986149,0.6782982949304653,0.0,0.005532709255688215,0.013825383557432777
