Frame,Center of Mass distance,Symmetry,Grounding,Arm fold,Leg fold,Kinetic Energy,Potential energy,Bone length coherence,Torque,Center velocity
1,0.7228086117512927,0.4575447797240469,0.9892110313037917,0.6052609792126863,0.7898593132670536,0.011194644126899245,0.1040722504182341,0.6139520934630919,0.0158140042418558,0.016259059446015866
2,0.7213337231938143,0.4500787591335682,0.9891323699801581,0.6040642347803541,0.79073323302536,0.011194644126899245,0.1040722504182341,0.6053187641800342,0.0158140042418558,0.016259059446015866
3,0.7227357081370346,0.4423414667166191,0.9899498966927963,0.6002161313298271,0.7916746452658366,0.008010376980345823,0.10490728787086248,0.595579180727921,0.004267483327476928,0.0003355679551147531
4,0.723496074703396,0.4333505780181479,0.9903654271029384,0.5959657604867188,0.7913673252507307,0.0019910438837952133,0.10553309726140002,0.5867159180365974,0.003572792200509763,0.0
5,0.7247806421464762,0.42443127627705807,0.9909824552454831,0.5914878893113518,0.7915047422197795,0.0002543874085990933,0.10613227327636987,0.5795583828914895,0.0012720656181986743,0.011125058002752344
6,0.727759856629647,0.41666996428695047,0.9920488642061079,0.5883401660939233,0.7917376891274053,0.0,0.10617672944271155,0.5733128679814905,0.00144242618713425,0.022168358935664743
7,0.7321564587052549,0.4100714899900507,0.9935925396965395,0.5858677699150088,0.7923697026593806,0.0073305190890432925,0.10550743773914656,0.5675973357201302,0.024456363058748744,0.024499539069822704
8,0.7368029995582648,0.40107465642226914,0.9951070578141231,0.5814281664634189,0.7932847005452607,0.017176267862948978,0.10488373910167459,0.5618459618243827,0.026289412006929688,0.03328502159092426
9,0.7439267567569744,0.3905434001644435,0.9974091580527075,0.5741526839937213,0.7945401169512116,0.03674328561379276,0.10455941508786082,0.5572689249847583,0.004493420333056043,0.056235129917273224
10,0.7518642212446615,0.3813631317181881,0.999999985921073,0.5707216172778291,0.7953586504788442,0.04041426660835882,0.10355788273088827,0.5540714080381588,0.012521474701526767,0.0607642571679737
11,0.7610310541514526,0.37235735026343797,0.9968210147841992,0.5703495255657608,0.7970112070627773,0.04840539713710634,0.10138041178561272,0.5513641426909579,0.0011291115195693807,0.06569182783668129
12,0.7713656424562777,0.3642199125646505,0.9932925790601889,0.5709031158099506,0.7985085513585412,0.057689784867741914,0.09820911099913666,0.5487039856273008,0.0011506733962865351,0.07188290302045304
13,0.7831669299806684,0.35540741807418275,0.9892569322147343,0.5701534878770911,0.8014811716204535,0.06770564516377055,0.09446527365733737,0.5463175448706624,0.018532453256880643,0.08146474650252497
14,0.7939180854509066,0.34741074905456626,0.9856586156843551,0.5688877002315004,0.8036682208735787,0.06176456290652766,0.09041003862995739,0.5447156686240316,0.014466653655773418,0.0777609520788207
15,0.8042372617415716,0.34044374040157566,0.982081977948326,0.5680124861455393,0.8069880291425399,0.06055311230577064,0.08619734537740256,0.543427557667007,0.005825076016449303,0.06862283279979502
16,0.8122038400748314,0.3331217821651642,0.9791794417170624,0.5678641789138501,0.8104526034382858,0.05214191705943038,0.08228729475765399,0.5420341959616871,0.009822326813586878,0.05973164906736705
17,0.8186845867370273,0.3240857871181796,0.9767153257961209,0.5683381795606883,0.8141804379632842,0.04657643616577992,0.07915319286748453,0.5404545466709368,0.013546035481574908,0.053616205029396825
18,0.8249316161242004,0.3149323079837927,0.9744492256783217,0.5689855374307274,0.8164594280075647,0.04010997086668245,0.07648155664337052,0.5387107840108689,0.001485843549628357,0.04770807024475151
19,0.8290038618248431,0.3039140465760429,0.9727808668427308,0.5681357541158139,0.8184376413565464,0.03734593668760324,0.07428281911970905,0.5367622356618026,0.0018610870355624553,0.048463919786669266
20,0.8322565323075534,0.29401098024242367,0.9714344199366526,0.5667169797373933,0.8198011168018378,0.032316813998190454,0.07255468373981068,0.5344612223625039,0.0,0.04897627169278384
21,0.8365041268018529,0.2852941227258263,0.9697608533459944,0.5648476588493573,0.8222793996630422,0.03552825168917558,0.0708325526587125,0.5316201450294196,0.011844629526272786,0.046811192134432675
22,0.8396322228084759,0.2783009006150805,0.9683711699617987,0.5625318163503644,0.8253339033489936,0.03706576033909353,0.06915187395329861,0.5278943289497984,0.0007083401900542841,0.05143179599367463
23,0.8442941696592086,0.2730555960521695,0.9665625650711381,0.5585240493503387,0.8293456394512448,0.03821359535219616,0.0674214376944658,0.5229575578066759,0.017614246071914384,0.039239937750262306
24,0.8495315480592966,0.26699321905401874,0.9645061982053832,0.5533807976172623,0.8355938313500253,0.04820220938866433,0.06522668375803484,0.5165116205968899,0.0402990563712808,0.04857248576834308
25,0.8579997801330684,0.2609873039934599,0.9614394057459777,0.544227335866285,0.8448162086695808,0.07037538512484867,0.06173402687404061,0.5084148054503339,0.1710679021009629,0.06115711209019937
26,0.8734939642045537,0.2568881772065171,0.9563465846218494,0.535137640871773,0.856681169593241,0.14258329071320935,0.05492664868076371,0.49833803563708157,0.018888395995227753,0.12539621928965738
27,0.8876118214601914,0.240921941273675,0.9511786749362846,0.5227816588085806,0.8695650487381511,0.15774053789387066,0.047542030171760584,0.4862325382572463,0.1631068798351873,0.1738491064338274
28,0.9134723947261049,0.2086334197194327,0.9425722844122045,0.50236279614779,0.8923453803362303,0.2991787813743966,0.0437555162254275,0.47330637558933825,0.32656900727578514,0.32221254870264315
29,0.9497175605684903,0.19158906165484565,0.9323567581276019,0.4761925539271611,0.9096828813555159,0.469185958158647,0.04220300628719088,0.4611101704174498,0.11392758141261938,0.49529469532470666
30,0.9853281962893358,0.2083298852828241,0.9232474861854183,0.45364146776251574,0.9201507747515286,0.45449461946881975,0.03852433818330028,0.4497111291138287,0.06853612708914972,0.460319486650745
31,0.999999996982986,0.22787344720314934,0.9192297031509508,0.4289649535454161,0.9108882192735996,0.3755247229078986,0.03370808507499381,0.43786735327631854,0.19268023649448465,0.37391656528465866
32,0.993715381661381,0.26759185495966786,0.9200689994908764,0.4126150323163731,0.8951517266600109,0.3671107857453462,0.031294325025706615,0.4236421502814003,0.06788486350193723,0.2800283122576761
33,0.9840509913503033,0.3116266616530574,0.9215476385982575,0.42517646440581,0.8836034921569282,0.3074438840909497,0.02939409718011867,0.406655902663523,0.48180325951102887,0.13783446962447565
34,0.9730950858896962,0.3336784857119178,0.9227500244659027,0.46914122571216227,0.8970192171039499,0.15520645115210857,0.027862053166657262,0.38969969413367245,0.20640090568938707,0.10853150427559324
35,0.9400077826848103,0.3347730851473943,0.9278864453998973,0.5256282990393657,0.9327272594414492,0.2974423687469188,0.02852889149158083,0.37467102128307034,0.34853225063108273,0.3011020834895574
36,0.8987722729103756,0.3284418411858619,0.9361037378985667,0.5880017625975288,0.9612967661060668,0.47099291138978977,0.02980778419424151,0.3611397931311843,0.24927407604247545,0.47091639807342384
37,0.8584127722953798,0.3353740180567992,0.9460154885634553,0.6414398580254362,0.9611078360957077,0.5458827282726414,0.029061269330808433,0.34682037517585096,0.30202957547406467,0.486457782906718
38,0.8145301625528835,0.36595666256798837,0.9590013891556645,0.6786148259613982,0.9311749653398231,0.6419951720159136,0.02731885108413951,0.32944988383690593,0.30870390324186825,0.4899442739277626
39,0.7944158882584061,0.4057019909217797,0.965380344115556,0.6890346972974256,0.9120444091932772,0.47315246386592674,0.02173011165388155,0.309689411928521,0.39692190514057524,0.42088879171556626
40,0.787044613930941,0.46043977187663476,0.966140494689516,0.7116492508375588,0.9241245016699888,0.2608045420426648,0.013928274453710286,0.2887776638682387,0.015537510824143487,0.13188218868745047
41,0.7899925356206996,0.5201162860950469,0.9637859838461549,0.7504779266861568,0.9463224715230855,0.31025287125486023,0.012364367975054542,0.26766032528298767,0.12200365671934485,0.2505160573170531
42,0.8048305830977043,0.581277513069766,0.9575106389899871,0.7743257116198331,0.9767431271753566,0.4706654605270495,0.016043242658283347,0.24760075166116172,0.024459550873776718,0.45882256470594746
43,0.8383080104964201,0.6340690503383128,0.9469196396205569,0.7742041659012052,0.999999942608722,0.48203941350498347,0.016129915418825597,0.22855943288599623,0.03048699032204395,0.4376812506406039
44,0.8660611795709455,0.6871954812873415,0.9392865542964497,0.7673160114398243,0.998107614339529,0.4139449958853468,0.009460503659396578,0.20936108244608795,0.0339701899964627,0.33027100581714725
45,0.8623548161457881,0.7241373350967277,0.9406509255688064,0.7529069942397704,0.9746494033023227,0.2899620780185507,0.003920362220955951,0.18953657561993473,0.021408808664695318,0.1725379251719453
46,0.8430394260985941,0.7454474890382459,0.9462273109730557,0.7567192068759894,0.9597560754496062,0.281368792311591,0.004434065547240936,0.16887074430836838,0.07372953250924033,0.2196988910046297
47,0.8041651729517038,0.7618466866096819,0.9563322935730598,0.8034469740152691,0.9671534274921832,0.369852002559387,0.013208210093062684,0.14759162426801226,0.011848648524305673,0.3425594642768946
48,0.7655577304830208,0.754632114078334,0.966737448752935,0.8550021531950542,0.9790898785407994,0.38621234069456917,0.024898344933525017,0.1262423126919719,0.034336378498694746,0.36790392531085786
49,0.7271407556771329,0.7286988856399415,0.9768641101472895,0.9006810478832585,0.9897469094680594,0.43364053095973265,0.02943106507796719,0.10525487139704666,0.06787920703983205,0.449969063598297
50,0.6984431958790439,0.7006190203708574,0.9843571916374928,0.9215819081342653,0.9928320058424523,0.39659329386990766,0.026245395237439302,0.08444265624625086,0.16190888671825795,0.4183143156575846
51,0.6779625692577258,0.6842899253757749,0.9900572309469461,0.9043580049009446,0.9828424842821175,0.2845645597332561,0.0211185446860373,0.06357269128447,0.15675239956943635,0.303591587675976
52,0.6675293367972353,0.6791279045823119,0.9934834493389366,0.8575930664581393,0.9669463930999366,0.15469326781908294,0.020672760198835436,0.044043829389680086,0.26816906383794115,0.0678047042495726
53,0.670112116085078,0.6761339311195371,0.9928557331874455,0.8210263639625568,0.9577044164067559,0.30975591649080775,0.025358500915251176,0.02691248601928616,0.4056316881002108,0.1795726872984676
54,0.6807116691968841,0.6550292167754538,0.9895574075710626,0.7577848901298321,0.9569912112010955,0.5831481980440627,0.03495035142635029,0.013616900487092222,0.38974279548033186,0.39814403833208883
55,0.7156025682902171,0.6043691696543528,0.9794343492165514,0.6758235859957424,0.9483638100642994,0.8006632382443467,0.04703281467076567,0.004818889522822348,0.004260535280585518,0.6351077753452274
56,0.7597178714862459,0.5431932860049605,0.9682835767326716,0.5770661294997759,0.9144863521461287,0.8022847195639143,0.05567498720844464,0.00043769798180964863,0.47546987508294397,0.7090195680255039
57,0.794777658957386,0.48029041330899735,0.9618712860848198,0.4795560646256888,0.8555503526323439,0.6062910800389851,0.058521345477770444,0.0,0.5645606526985142,0.5616709250614548
58,0.7958996628538987,0.4335483135495622,0.9639902973996116,0.3985309841358467,0.8140550755753945,0.3742616891219785,0.06285215439668414,0.0023720276404739686,0.677592673931363,0.29766978289563617
59,0.7928881894443423,0.4068317167734387,0.9665596584171471,0.3494159812679383,0.794978469564202,0.1298038820434179,0.06931099250653079,0.005540170333601518,0.04997203346305456,0.07923839761451605
60,0.7884269166662375,0.37357702362396883,0.9698367291262201,0.3395809981730895,0.7702315005518328,0.1839592249943834,0.07215099291682793,0.008802272929809707,0.3330990254191594,0.15846551870684497
61,0.7666304953437594,0.32790473279575555,0.9767964093314137,0.33725012878070565,0.7682603540448778,0.3561323767140588,0.07700360124767394,0.01316521384874611,0.45892903833745513,0.30861448202797237
62,0.749815396887464,0.2554104880618702,0.9825841024252858,0.32969306332873866,0.7877783291969023,0.5466245884875581,0.0848027956518251,0.019576762260705025,0.20162827451422777,0.4313352398859421
63,0.7576467819829386,0.16525406112716925,0.9818827510393536,0.30603886586437035,0.8060944062561831,0.6483421667948291,0.0857293139871627,0.02809521159189675,0.1274364957064941,0.570785012694869
64,0.7740192338558386,0.11280719631161784,0.9793646500760568,0.2713527928449744,0.8046089546672289,0.5917493066708713,0.07649277769178647,0.03810193956734165,0.36057447303846885,0.6292005824134197
65,0.770115303171046,0.1410319716006987,0.984217763078858,0.24491708033623127,0.7781748701016091,0.42639613143143856,0.06810724794779012,0.04886645336724692,0.08858022899640802,0.4735957144900932
66,0.7573308782723865,0.202545725751881,0.9918472453631222,0.24281403828278014,0.7520675963769604,0.3603070204505578,0.06477056356210929,0.059939052611066725,0.12299174084730873,0.39699219905641353
67,0.7343122952035152,0.24712528184852434,0.998923100895022,0.2439798043550837,0.741676561483676,0.2900882645702427,0.06484951447711476,0.07178960279767252,0.33091041007896277,0.2616264020485976
68,0.7250464176215832,0.2766109509999513,0.9950987617391901,0.22941951523386744,0.7438204977874847,0.33227815585041837,0.07035611165910366,0.08505789481644227,0.17165365135375854,0.26503526603623867
69,0.7336335962780698,0.3156681626272745,0.9964948639842828,0.20552610700205765,0.7431594966525519,0.402256891145935,0.07620852006803162,0.0995969886058729,0.1283713228335234,0.38242347936226934
70,0.7255849483404982,0.3676142359164451,0.9914261135885182,0.18864363338416124,0.7333439014430196,0.3929795159155741,0.08119266915207946,0.1147948805598957,0.22398431176291964,0.3732912891756728
71,0.7002725057304341,0.4119650256390891,0.9813564650010931,0.19018909736521375,0.7428315832084683,0.35811936111213527,0.09112520855381923,0.13037555057184713,0.17849773913251282,0.31316857064855713
72,0.6727999314239927,0.44792153119162087,0.9705589115324214,0.20985100124952902,0.7593123644445177,0.3193923262471389,0.1053295740251486,0.14645945621276957,0.07149422158975294,0.28912044737015324
73,0.6550435759926942,0.48245503965751874,0.9631408883260086,0.23831246321748684,0.7756626969453929,0.26047522347342067,0.11732070709318988,0.16329707634664378,0.2476499804931102,0.24726302907988174
74,0.6319362696729884,0.5274810712573614,0.9515618688207758,0.2722775345014723,0.7751783536432426,0.36960317301914253,0.1291731739259776,0.1807976874565999,0.37813020647824575,0.29038063344187576
75,0.614409803264019,0.5923315744727794,0.9401453191625864,0.3162091754817255,0.7512363087902668,0.48485711254043173,0.13910200681624377,0.19840667023649577,0.32586714455047217,0.4019520699803657
76,0.5988208231224796,0.6678597480826454,0.931549223038058,0.35781994819312196,0.723631145218637,0.5488717343705253,0.13476416818674122,0.2151401289295266,0.21251252523019232,0.5588405267323858
77,0.5772094700274764,0.7385094958626711,0.9247491363035623,0.38421005996613644,0.7228203962307632,0.49568399864440565,0.1198266029147842,0.23015571855345857,0.9999999998693353,0.5707146914277751
78,0.5675727261006457,0.7718682783296383,0.9226047523216399,0.39052161727542867,0.7310808985531673,0.19381318616143564,0.10935721324122079,0.2435560166934562,0.2936961448135088,0.23545240319770336
79,0.5699031238393676,0.7519765636418914,0.9248290087330255,0.3929185461093383,0.7413985912252153,0.0926815089056193,0.10688295755429243,0.25590900106685344,0.7620473179048771,0.08890710912155125
80,0.5860661915951076,0.6816353024015781,0.9329113840422756,0.3860109803985925,0.7569746393377836,0.3529890353021213,0.10880772190709136,0.2679701890896001,0.4633943369869028,0.3679548440959123
81,0.6101588672179283,0.6037128489754722,0.9437699166894683,0.37358877897464726,0.7682346240265855,0.5193855247317466,0.1137642053632262,0.27966989567086703,0.1463065210668831,0.5423740222174231
82,0.6353616897999768,0.553620360356045,0.9556298824695268,0.36406510463917935,0.7776212207239253,0.5023875724783781,0.1148140348504771,0.2904565768590359,0.3139326268780986,0.4681810636013308
83,0.6478193153686906,0.5220712484985744,0.9634470558797362,0.3725515929706272,0.7810778159283617,0.4181850383245689,0.10879048701402577,0.29966880422484776,0.057084094743763324,0.32564878746916814
84,0.6455533151660217,0.4976963161761162,0.9664720349103741,0.3948562422528071,0.7867245958098845,0.3654485751690521,0.10322916424373588,0.3067441619575464,0.0868686826672127,0.25687223849699237
85,0.6463280331576817,0.48101633662654725,0.9707799383463268,0.42856302386330664,0.7932984296522683,0.3706071006592717,0.0998367019790768,0.3116173457575526,0.10663827007223584,0.2712333297918537
86,0.6428948040125001,0.45314524523798316,0.9742963841226239,0.47972699604083247,0.8079809102519567,0.44012309985443604,0.09838207454157319,0.314853138927459,0.007742863870892821,0.3618850689872466
87,0.6184517497975661,0.40961689011970775,0.9691228730725973,0.5346763964960288,0.8240317589111837,0.4516420910710334,0.10724215511189444,0.31695485325746475,0.019149419034867412,0.45009984371660927
88,0.6044669551324118,0.35686246227184487,0.9645249400680965,0.5776828280766579,0.8136343907550256,0.40061559861734736,0.11986192885141957,0.3179541126469103,0.35032040350766713,0.3888680723443835
89,0.606598587003196,0.3094105437628163,0.9649312357962878,0.5978866512286564,0.7865178030515703,0.5000412055096617,0.11783308893357022,0.3175610730942669,0.12145857139149054,0.4490577249259432
90,0.6144656229334831,0.3282319943841968,0.9708503035950276,0.5890062645463626,0.7819982172682756,0.5700876093193259,0.09823209576277729,0.31583459682603243,0.1277010519921728,0.46628757693457396
91,0.6135777345929967,0.3997056688311213,0.9763218980673692,0.5861691905919242,0.8095091673346525,0.536601428511533,0.07556981260795466,0.3125902831059625,0.2835256923791857,0.40336816369880685
92,0.6076276541763227,0.49419706530292806,0.9807233897063057,0.6361139529412191,0.8552087826333796,0.709391103747029,0.0618188662036446,0.3076564820515778,0.1400694689777837,0.6562699536035127
93,0.597885837169693,0.5885149637459116,0.9841115188199547,0.7035401151374985,0.9131797305070013,0.8469433852674623,0.05852158950952161,0.30176974446630744,0.05261828001548574,0.8745726028490919
94,0.5958497647949839,0.6731465081487249,0.9884572390354373,0.7590758125496222,0.953705191039553,0.8274067198267081,0.06076646964539282,0.2952092779436642,0.15956655928311908,0.8324455128808006
95,0.6020336087646643,0.7500827205614414,0.9921145969750104,0.7963075132282076,0.9520566741548818,0.7186593208702098,0.06126900952371057,0.287696860157284,0.28476081318844537,0.6938577525487079
96,0.601198436974166,0.8145275747601378,0.9911379612340062,0.8118393347632612,0.9253562560917473,0.5536564603570663,0.058441782696187966,0.2792832544154409,0.3760582882926716,0.47771582414292607
97,0.599438375783762,0.8519121797645983,0.9891685214891721,0.7998258591744023,0.9043522938474352,0.3736099852104876,0.05206499287549409,0.2704351115945434,0.3911087788373352,0.29013824340085564
98,0.6048506210149971,0.862893074761379,0.9899532272338277,0.7951313124661461,0.897974390868361,0.19697898112299825,0.044474992758757735,0.2613773842667,0.07438749209807792,0.15779913686981814
99,0.5976488029377963,0.8697443981723447,0.9878766954560096,0.8254563214456636,0.9094952129369915,0.2092677000404886,0.039114457269823995,0.25207734074099486,0.1726513264855651,0.22391722104314107
100,0.5812412962161194,0.8762777174444344,0.9832459717611721,0.8787193794159326,0.9293985901451078,0.2888643638260132,0.03612609703640428,0.2426556467755577,0.05068898931855101,0.28056511706173737
