Frame,Center of Mass distance,Symmetry,Grounding,Arm fold,Leg fold,Kinetic Energy,Potential energy,Bone length coherence,Torque,Center velocity
1,0.6834785809080675,0.08400142144813358,0.9054694639691122,0.366912642967793,0.372503458651673,0.1048177920860533,0.700227973728909,0.36087032622120263,0.008475607647362292,0.03978632679550048
2,0.6888494730197916,0.06696526915432774,0.9102462395743993,0.29478090450699923,0.3803234746643932,0.1048177920860533,0.700227973728909,0.37670217681356416,0.008475607647362292,0.03978632679550048
3,0.702037926532198,0.05386202302220299,0.9206794273577361,0.22529162922579982,0.39233979930193275,0.10257037478300575,0.6962794984207894,0.3860079681280111,0.02530579345770936,0.053127118075680914
4,0.7195355278661729,0.04435196086506676,0.9337157360142699,0.1725956192661306,0.402983499776894,0.09654605247519663,0.6882846165744245,0.3876810782252206,0.0731950226700341,0.06337175418339912
5,0.7363908134584676,0.037663900259085364,0.9462601698824696,0.13301656187221608,0.41756232102013247,0.07970259728935203,0.679139744514033,0.38318007719374814,0.02417100919855605,0.04825381072600118
6,0.7527705322745104,0.03200498949715939,0.95804564361425,0.10399077079950084,0.42932374072682655,0.07372515105752046,0.6716635831685392,0.37170489850117955,0.01430313982765579,0.05809455489583395
7,0.7693022278243736,0.025321414254954967,0.9695989335163002,0.08240948365961609,0.44127327531105337,0.07160622114526564,0.6653572113677312,0.356451236341843,0.010082685822213344,0.05539022637277157
8,0.7853985651608874,0.018692887792516037,0.9806319541744066,0.0636478288480139,0.44751558712815603,0.07781497070465827,0.6601247785920462,0.34076797720377777,0.00607825348330035,0.08799643932948392
9,0.799097002315613,0.01244956841451463,0.9901730828106508,0.045360248602908,0.45173083756872723,0.07759537902694118,0.6561942493171599,0.32857883894545387,0.012097068925378646,0.09493588686393527
10,0.8131721045415862,0.007259917272769403,0.9999999306564743,0.030855043240342963,0.45484125342881676,0.08514179131353175,0.6506476986643746,0.32169491616208395,0.04285014539752389,0.10253967107546043
11,0.8325904468804379,0.004214744221379076,0.9870405236505517,0.021245740545662074,0.4596485619592513,0.10452386623695886,0.6418587767520899,0.3175149518138115,0.051335567187832915,0.11717060726383483
12,0.8503070246521363,0.002247542639957507,0.9757315443769831,0.019700628249386936,0.47282631093635014,0.09084905259904377,0.6303590832848265,0.316159786278258,0.09219298865671527,0.09578439372136972
13,0.8615173730795164,0.0,0.9683563803077674,0.03141792708973094,0.4792036173350061,0.07053727001454223,0.6199366868202126,0.3153369670463476,0.004634119386824914,0.09093930379252188
14,0.8560023227223211,0.001961073162619698,0.9720627440916588,0.049955529780933816,0.4853587525665924,0.06685137564794678,0.6175562258438252,0.3108713534183878,0.09033766232545727,0.07054394718061582
15,0.86996615909904,0.0048634521707100215,0.9635379003458029,0.06294394279237822,0.494172356326212,0.09228709028034766,0.61683154143559,0.30121112863607724,0.045280006101004154,0.011538908240871035
16,0.8855855501490667,0.007842399525225165,0.9542455189717285,0.07077838947842811,0.49971068955190723,0.08225741100328977,0.6111214511615802,0.28889266034569805,0.16052269640129666,0.01426221965444839
17,0.8904733982901847,0.010257257178148394,0.9514678905067593,0.07636765324651319,0.5033520329228992,0.05113353012626811,0.6087568256878432,0.2746224714924864,0.056229175333729474,0.07847995148096477
18,0.8917128360757562,0.012544122908492071,0.9510109172367803,0.09017815247263208,0.503708576833081,0.0369801702990631,0.6106230209804864,0.2602544203124451,0.0454573984736337,0.053129344571146785
19,0.8981981427264639,0.014547944254946215,0.9478824989347916,0.10720017805367998,0.5017310487673866,0.051922747093057955,0.6118964031192116,0.24600607287598983,0.0025538721671922553,0.03999213389272069
20,0.897407507212398,0.015645353071320752,0.949040164552073,0.11730327041749196,0.5007008821136136,0.05781068890178273,0.6128718053982875,0.23271983015918038,0.07692490802161883,0.06306217693392399
21,0.8903985692962101,0.013744002333407213,0.9532055720349989,0.11779902344251714,0.49825594595713213,0.036250249836437355,0.6149645211002963,0.22131330266750796,0.012052063079363235,0.021467642018231453
22,0.8946155206508271,0.00880940225668563,0.9504658028441764,0.10640011872810086,0.4996714628828336,0.04664599060244387,0.6153390326758423,0.21123176905390142,0.018652934211147595,0.06528151427006182
23,0.9007115910594323,0.0028796272305189824,0.9462075218293587,0.09404995356462839,0.504234644259035,0.05843580725899204,0.6130844917695601,0.203339500750314,0.1297465810874817,0.07672586184225572
24,0.904939842154431,0.00010654035907204604,0.9436588236627479,0.09352669748732195,0.5071578333226519,0.02620671550633852,0.6107190560090147,0.19655446856062297,0.016028855023010245,0.03547843338452459
25,0.9069138575958989,0.001170308618668579,0.9424452564609839,0.09860591253285785,0.5094106773462583,0.021198996441321293,0.6092108696413071,0.18987354733500092,0.012257188582014925,0.012705531653763378
26,0.9094716302710638,0.0033286621365062673,0.9409879701818972,0.10132369162135998,0.5123715533043304,0.03078491459824375,0.6077075446110372,0.1826789936866432,0.10310249263479238,0.0268153217983229
27,0.9015248694166191,0.009283490136786293,0.9451835467739097,0.10649319715741136,0.5151454525909867,0.06469988157038398,0.6076171523533153,0.175139393666969,0.07777156830900515,0.0755088837607497
28,0.9151678294097472,0.016741531676233715,0.9372079582787665,0.11544296399492193,0.5166291333779316,0.08780442213687936,0.6064372018009762,0.16648299116137352,0.018536581322250962,0.05037723082105848
29,0.903995933050542,0.027128635120370337,0.9440971630712335,0.1293922063762516,0.5154757045371674,0.09176341777134804,0.6055621159498451,0.1567045840076887,0.06764354714162886,0.12365517439652275
30,0.9044620130708809,0.033876566328183096,0.9448315738345722,0.13969900206658367,0.5125039058449629,0.07874494899969493,0.6073469502412056,0.1466168935022269,0.017525466657031235,0.0909247864679712
31,0.9144571778082378,0.03651170498526152,0.9385040468671478,0.14633673859681143,0.5138377381773548,0.06776246074586553,0.6051149152385975,0.1368923318255117,0.13275831815135533,0.08572869057006323
32,0.9084572285768044,0.039032356610904345,0.9419480577122231,0.15005489369711505,0.513496830493262,0.0334699463711588,0.6028831325695209,0.12769657843461982,0.1566880995971445,0.0358671005797651
33,0.8987496601053119,0.037619929859464156,0.9483640215778504,0.1461041779569395,0.5113402190301128,0.08381258852368396,0.604997734684249,0.1197133547193961,0.18382801823708508,0.10082074209479867
34,0.8983482082804514,0.03116320117169207,0.948253401511202,0.13381836767501307,0.5123547934012093,0.039241951226317885,0.6068422141553829,0.11305434425640072,0.10222098740356221,0.03328964926361761
35,0.8987934061703929,0.02141737957776768,0.9473175675783764,0.11494544282488173,0.5126814806007451,0.07656587182403737,0.6084774329170117,0.1083300836395101,0.022421153564225024,0.0780585527585494
36,0.8960999086799555,0.010931623145392219,0.948483219136298,0.0963515963150026,0.5094448411808635,0.0900218887652328,0.611935093712406,0.10582526885221182,0.13518663556952454,0.06431135572684521
37,0.8902516996217752,0.007490894813802318,0.9520050189587221,0.08482202472209255,0.504224437238282,0.04801137596957668,0.6151264697367014,0.1045059462695461,0.07469508721998909,0.009604224156133727
38,0.8850756876795194,0.007031418790002507,0.9552177333008043,0.07941413017427587,0.5010920313948399,0.0272128111422334,0.617597047447757,0.10375128201287576,0.007248432151260585,0.0070675765456952875
39,0.8798973420123662,0.007732384160319854,0.9581973764864185,0.07854849888564394,0.4993889215073641,0.027202937891235665,0.619317320953004,0.10355128633387771,0.021448036769023727,0.024627936338427574
40,0.8771541700188374,0.008116996987789251,0.9600104807873726,0.08441268739336628,0.4977941277931059,0.024011064794155934,0.6190997611660353,0.10334676591326607,0.13882180508698652,0.0353400183299811
41,0.8657658814111164,0.012839720695509664,0.9673525179917092,0.09713415987371637,0.49510029770791303,0.07184472118590397,0.619879735651835,0.102971755446649,0.037984062410395245,0.10299727244547136
42,0.867743781075452,0.020928118050068202,0.9659505417459464,0.10964393342842534,0.49308712157678936,0.07821728501841631,0.620089192531644,0.10166465388668099,0.04524157734345169,0.06062351930289555
43,0.8592283899021084,0.028193823397467167,0.9715693904254289,0.1175071820087746,0.49088291185514193,0.07394333807165294,0.620023455407672,0.09930224380406634,0.034524055868529385,0.09752324687576604
44,0.8474893339022344,0.03282828006241407,0.979326104991909,0.11871544481109483,0.4869893928270709,0.06865463337231191,0.622737915764172,0.09632403582444819,0.048363942405115386,0.09590318938101644
45,0.8444456606445627,0.032894291151367064,0.9820620291001998,0.11284823446063502,0.4822580907743397,0.05318711311025298,0.6256050271618954,0.093586520788184,0.08422346951345744,0.06349701172360232
46,0.8411098000648335,0.0327586443204476,0.9843397968361947,0.10869496023104494,0.47839447491009485,0.0342935367450499,0.6270572954988999,0.09137676180566513,0.009416484037408338,0.01363479071741267
47,0.8352035297095901,0.03591049715981712,0.9880772170559102,0.11619684575509905,0.47739067821921993,0.04064107349672233,0.626323832488974,0.08979837255465878,0.008682002289857329,0.02448213647548746
48,0.8319735171535777,0.039338177293386574,0.9902121251871153,0.14330192985655418,0.47550325021636186,0.053318632716141734,0.6217340918561555,0.08912528681234232,0.008926533935002263,0.062067643546930916
49,0.8270019113039472,0.04610032661424166,0.993361839330812,0.18920186462859823,0.4753662394938361,0.06465902832444463,0.6155945018131916,0.0892661928407818,0.028745614960820925,0.06432567092798458
50,0.8180045315199613,0.05560932103625755,0.9988824905179746,0.2399884410611542,0.4750482113291294,0.0788898357772111,0.6138882734566978,0.0901535657215469,0.02985015420881194,0.05876150331271847
51,0.808802992753907,0.06475434161609223,0.9947120548502008,0.2799823970580229,0.4694171958492957,0.0940080477628972,0.6193065167448758,0.0913823371570174,0.11936636249954401,0.04299336462020379
52,0.790548486884943,0.07207782194937669,0.9812986323300916,0.28606741951834863,0.4534819363482456,0.12933612056062013,0.6320798667460256,0.09231808000965774,0.026513509321699057,0.09080183745957913
53,0.774872765382639,0.07114295657458825,0.9697808354975546,0.2690984570588277,0.4451401825789633,0.12454245316630402,0.6497989274458102,0.09222368097139651,0.025690821409968083,0.08628120892251155
54,0.772962911449625,0.05943211561465417,0.9688630438750649,0.2255486454069793,0.43641906817605336,0.13335359459193016,0.6660288054740776,0.09183624081783953,0.007625348616367887,0.17105384400576543
55,0.7700328250497891,0.043197579116457045,0.9677932236048282,0.1650761966626497,0.4329424860611177,0.14333304117435014,0.676112652703775,0.09202244741469412,0.046119039458631855,0.12407934196286032
56,0.7757391845183065,0.0266817081973903,0.973174860269732,0.11431448208541162,0.4321391215267824,0.14532977693687327,0.676240489134697,0.09393704397636359,0.09156528886001182,0.1136106506884438
57,0.7813339756493947,0.018626870074448864,0.9782275944904821,0.07597993382834103,0.4319921232946908,0.12115876943363378,0.6674138451576406,0.09790027067279787,0.1280417584324095,0.09673552895472898
58,0.7752132768971084,0.021250129054943816,0.9750332182343149,0.05173667296550983,0.4274217096188805,0.08510329181390669,0.6590867674062179,0.10345381749013992,0.022921830631217503,0.05416954717914286
59,0.7688826800102924,0.028118879272356043,0.970561091475681,0.05356775553644291,0.4252539795321164,0.08084119268757894,0.6523532088566508,0.10972106122225349,0.07857576488618485,0.07828693572393176
60,0.7579420615854227,0.038707044982290245,0.9630463213330483,0.08714919630985207,0.42781926525452224,0.10675741755247174,0.6461848653665324,0.11618865195633866,0.02592326703969311,0.11101306729108697
61,0.7451225213624039,0.05420718889590027,0.9542641528332227,0.16298787537028842,0.4271755801654193,0.12750219361078585,0.6443114746182073,0.12256391144184993,0.04901802078552495,0.07125206175780151
62,0.7344001253309685,0.07186520942799621,0.9457526189884337,0.27411789815955495,0.4208172840832013,0.1607169586378025,0.646293455787112,0.1286771144272037,0.06700826750878168,0.08277996327646113
63,0.7200222415378852,0.09567981956365529,0.9346817390561807,0.38574171357623294,0.41234832538238386,0.17671541025557452,0.6515130116122793,0.13422780912193705,0.1208930413563708,0.0824602616700372
64,0.7192561519752376,0.11931600840432902,0.932595338119977,0.4570800790616866,0.4055385436390978,0.15881366104444264,0.6570790832844519,0.13842625961830926,0.33747491141616015,0.059346450755192945
65,0.7193060959502705,0.12800218010031378,0.9319064767958457,0.47700895097126117,0.404927845320792,0.0692527880272792,0.6593370515279947,0.14160271375436126,0.014021600184955183,0.041968609209793915
66,0.7152258878920977,0.11774474329746233,0.9297328220637564,0.4524692824866202,0.40726697857462674,0.06288326158499716,0.6599083853586998,0.14493588462404736,0.18273773454184838,0.03384850320832951
67,0.7079515906218109,0.10451698678496889,0.9247942572166059,0.39544600942684316,0.406579085284894,0.11650958089587601,0.6610691307074832,0.1486163787315051,0.04865852750821328,0.024951207381574032
68,0.7016223651699551,0.08730955063311667,0.9204368913827307,0.30769740305343973,0.40565781886272995,0.14576434669278426,0.6628061337410206,0.152559851070993,0.04405395054505226,0.02124155458772665
69,0.7004779369619153,0.07055739771819733,0.9198888192343344,0.20908046137234335,0.4040859817849127,0.14551682736179342,0.664186080528697,0.15668844662000514,0.006328882066941921,0.011708864894025624
70,0.706022317913283,0.05268768885413464,0.9237806343064313,0.11757503121225218,0.40007682580952975,0.14526847090033682,0.6654683093074008,0.16115140376978798,0.07120866531607256,0.0550621444283784
71,0.7123551198375275,0.041614985081790436,0.9277147452863648,0.050242145216730115,0.3930348029289585,0.11676307807780177,0.6705364365430432,0.1646745338920125,0.032504582512030186,0.08168557428832011
72,0.7197187884614282,0.031198416447488195,0.9313870948786395,0.023017563858543425,0.38204632931921084,0.10529320370486046,0.6790924701852497,0.16734223112249605,0.0468474295477467,0.09621105854959101
73,0.7344379971016454,0.02486066275021821,0.940467996713532,0.030255015460904453,0.3729243303748558,0.11342407927986006,0.6847058830281171,0.169304903750673,0.013899815815568563,0.11094213093458656
74,0.7515729017808765,0.02562943932237995,0.9515489330154808,0.07288297613530774,0.371807212752951,0.12319024689590242,0.6858006334594876,0.1702303173395038,0.21724134043833965,0.10302622445790251
75,0.7820648783003343,0.029595260232969378,0.9718213912189705,0.15004068806757279,0.3700683245753135,0.188259288426895,0.6813535653413731,0.1704250888440922,0.14314042696815452,0.17561034209227577
76,0.7930418182150593,0.049203438944191984,0.9781974253813963,0.2560261642981008,0.3718730050321323,0.17531508847011326,0.6754874917713456,0.1695768285839231,0.006505728479436072,0.04974746695597245
77,0.7982382892107664,0.07928578654945162,0.9806328415011443,0.36073524262690654,0.37253215026581216,0.191195615990521,0.6724181075973161,0.1675741096323487,0.11322797010555634,0.055947025262576104
78,0.7982355635028934,0.10337066323569422,0.980527841170502,0.42907558760672787,0.3768762260973275,0.15211943890468296,0.6688354307825473,0.16511390339797422,0.13216947696808617,0.06097192522569042
79,0.794973216463544,0.10692688789217716,0.9794606828804789,0.44156036834119194,0.387907716807293,0.11041831345710795,0.6641635124467612,0.16284969364387922,0.04777913195599671,0.06964110063954655
80,0.7913281541233956,0.0938641044764206,0.977914072376451,0.3981255708357821,0.4006101355179527,0.13096897895510212,0.6615046548413623,0.16108716956979335,0.01552320414965764,0.01880071885137035
81,0.7919274287963113,0.07516555545180903,0.9790533999078176,0.31738857239392415,0.41427350881862907,0.15173216291816022,0.6613374166675802,0.15965551361291663,0.053952031840785605,0.03704447717833707
82,0.7963545247870241,0.05509623995318948,0.9825947209184738,0.2253063907199796,0.4279118824549368,0.14610036682579694,0.6597490522199434,0.15854613031995385,0.06494198442085745,0.040889121186050044
83,0.8155356843205405,0.03692757175567805,0.995952537629679,0.1432173721763407,0.44113750439464006,0.1518499891901393,0.6556160872193677,0.1575635127340735,0.14929659747852833,0.13835137874560788
84,0.8486418025742135,0.02106392431158837,0.9815890839489395,0.08511533879115564,0.4569907646962611,0.20111589407096406,0.6516663388487135,0.15645702093152553,0.016257481338695715,0.27322313136010534
85,0.8783533138640247,0.00885613397631791,0.9634879142729057,0.060016547850239535,0.4662886158208929,0.19341742340343784,0.6514500284899547,0.15500259746658088,0.037359911052421306,0.2640964957347385
86,0.9079084201574795,0.0047550486883079675,0.9457940275695325,0.06859411968354817,0.47704997128808035,0.18835575390319642,0.6517428389570952,0.1528074583344536,0.004656043285748797,0.2149216587241741
87,0.9418225565073235,0.0065463215783668,0.926519220394936,0.08640064396718303,0.4880176343414784,0.20594746953082949,0.6465019227431423,0.1501690961122882,0.1565217457509196,0.2104620957833365
88,0.9680150460711782,0.009536603875388842,0.9116352016946732,0.09349139417346844,0.5011968223369491,0.15957452843243655,0.6362442968951807,0.14748198129634355,0.07835616838072294,0.13177532541148623
89,0.99248237396458,0.010323926991376518,0.898264962409138,0.09159000326882659,0.5197009012851501,0.13237677023534217,0.6229485234267588,0.1446368045465207,0.30355448170272553,0.06110514167390916
90,0.9999999958526908,0.009911592846560019,0.8941279493818226,0.08956779496863809,0.5345584440661075,0.04842846493732984,0.6124455281998661,0.1418983092668793,0.04120792412819882,0.024131078118756543
91,0.9969622497682233,0.007155691359569092,0.8949747548652858,0.08913889623193307,0.5490472308858234,0.06420680441157987,0.6085431314024929,0.13951462071612472,0.2621295277399767,0.09049864503575568
92,0.984436441381765,0.006554330865419999,0.9002990110678102,0.09054396055226614,0.5663080342031733,0.14693333031314854,0.6075021180041874,0.13735331089267558,0.3082390916468993,0.19672545558462667
93,0.9557682783316634,0.008662216237492484,0.9154329601325605,0.09343709887784973,0.5802123457006625,0.2376919691151827,0.6074786707408608,0.13522450773245956,0.4807657888059659,0.32369577754011025
94,0.8864791418979964,0.018811556455510667,0.9554295086155656,0.10036104485416147,0.584825170943972,0.38609258426065696,0.6166906950902346,0.13290836150369714,0.003245179203772191,0.4894114724917453
95,0.8037657824340348,0.037720337431596584,0.9928817955656489,0.11380199807545893,0.5794699732488102,0.40093226875105054,0.6428621842791619,0.13007094913164474,0.06252919741772284,0.45709049911213046
96,0.7104525675292562,0.07006185105450694,0.9282829301741511,0.1347690844788962,0.5577485881531032,0.43236223844469457,0.6839628520048208,0.12615590112460265,0.04695012591363406,0.4603272220035071
97,0.6114455128062246,0.12016051817407924,0.8518296753409018,0.16177504364410697,0.5149193268853186,0.45731764796664826,0.7347082449199911,0.120822363244127,0.10494878198418092,0.4294408854520414
98,0.5296067231819084,0.18016642169474562,0.7824590625289656,0.19170211584661948,0.48190544455272477,0.428060061148463,0.7830208762837705,0.11408829894671178,0.149897055962079,0.330545175328683
99,0.4783214100310194,0.23210305786111263,0.7377401611472604,0.21814003643688842,0.4842408786247757,0.3936640362304185,0.8167179880053584,0.1064008486120344,0.2770823618118973,0.21056810685506952
