Frame,Center of Mass distance,Symmetry,Grounding,Arm fold,Leg fold,Kinetic Energy,Potential energy,Bone length coherence,Torque,Center velocity
1,0.5526105986101654,0.1702932080043563,0.025710654335549133,0.8412286961901849,0.06877997703307771,0.028734007229476884,0.3467491079548559,0.9999997011956906,0.17946876328027153,0.06356116608208723
2,0.5508691597647811,0.17442800291922925,0.029086090820015485,0.8371111799015772,0.06900722368531387,0.028734007229476884,0.3467491079548559,0.9978048026908197,0.17946876328027153,0.06356116608208723
3,0.5498899520240378,0.1762517519009945,0.030922388756405617,0.8317151507378407,0.06917213119355112,0.0,0.35024595677768056,0.9956703022403265,0.004249423075189376,0.030434100573315255
4,0.5472882840307357,0.1794972455481123,0.03290521294999694,0.827451682509597,0.06648129379159365,0.007647188203114136,0.35290527211717965,0.9931395560950178,0.07108368561487377,0.03850073085900332
5,0.5410918622071056,0.1870936224242912,0.03620061314753138,0.8222490571494676,0.05855188618596654,0.03511382174330931,0.3565774163570952,0.9901815853403051,0.06532727101795568,0.04825579509542468
6,0.531521647633917,0.19804233824595427,0.04102483695401458,0.8171825599886057,0.04609282441472279,0.06497407600752142,0.36197969773856997,0.9865553234895097,0.019411489259182242,0.0653910708511284
7,0.5204953167487975,0.21010490202355203,0.04682359965440017,0.809426626574413,0.031499228715917336,0.08253072882304908,0.3688923074862762,0.9821550965185841,0.04973650887076755,0.07209798825482772
8,0.5074196866876169,0.22233106490127721,0.054657127360679986,0.7994995085758466,0.01492211945026929,0.10897603679586537,0.3777386943439916,0.9767369112782859,0.0,0.10877698625581116
9,0.49759556923437137,0.23192220325203056,0.06144063246728376,0.7898199156391283,0.013916232729636904,0.1078557788143084,0.3877659841221571,0.9702737087715588,0.15313899094111727,0.1323162100246972
10,0.4869509747370598,0.24250459757301038,0.07076680190498726,0.7758761887934253,0.024800579657534384,0.15180252227499832,0.39978176296581486,0.9625619169472789,0.19508161742082805,0.19086344070415626
11,0.4750170711306283,0.255801268810041,0.08361130475392455,0.7585677237159782,0.03551958056541965,0.20159225691167942,0.4164978943078437,0.9537940037060887,0.28243747691673765,0.24526777700369448
12,0.462135514511437,0.2721925200225361,0.10078013889645582,0.7339064697009812,0.04460770416526544,0.2654631138039807,0.4392325244879436,0.9438991041278337,0.32438261975863675,0.31445613685847373
13,0.44875208119337395,0.29064495251634953,0.12260624764552183,0.7007122536458198,0.05223464146761839,0.3458257216999843,0.46924358988145354,0.9325298308374106,0.3609830332979345,0.41517180968112966
14,0.4348463583035541,0.3098848423281622,0.15000544796533297,0.661820970104012,0.060615127816272235,0.4250197256135679,0.5075079345829829,0.9198346504635049,0.2665969770017118,0.4966260889308473
15,0.42259741391143796,0.3237103301593159,0.18118744527455702,0.6177666446816692,0.06962262917831584,0.4891820029879519,0.5535399047158626,0.9057762350299076,0.24525574803328984,0.5716079949041286
16,0.4115956853534915,0.32846089823403557,0.21630519674923399,0.571795561284201,0.0769950383288474,0.5494703764347605,0.6061988447332181,0.8903839668398911,0.27140214978157395,0.6412277806755834
17,0.40203403910760654,0.32484543612506345,0.2543060135052684,0.5220979176318131,0.08365046851449309,0.6134771007953348,0.6644478157381604,0.873608078319941,0.287607400469601,0.7169860187573139
18,0.39373882664830046,0.3262442123369835,0.2920526657041347,0.47064563287061817,0.08628477558361974,0.6604265189335305,0.7245420616381534,0.8556340819649573,0.03725939981887952,0.7759761316970628
19,0.3860145713711495,0.3427756927753672,0.3250168711917947,0.4207259286329509,0.07774193864873485,0.6469577233885706,0.7797490748457395,0.836853737193533,0.02204295236318078,0.7775401533764621
20,0.3764870276150485,0.3649826012615466,0.35638359823646915,0.3734923516603854,0.05700070231530688,0.6312999785133496,0.8268739066760787,0.8176763517297715,0.05387867106740075,0.7578233881538863
21,0.36510474885875716,0.38754155519752975,0.3885575806946628,0.32711778933320457,0.02755406357661268,0.6203418016571756,0.8677331584526746,0.7984077948245654,0.05910915967473329,0.7057929494891467
22,0.3535017353821657,0.40258684025868213,0.4186417851382834,0.27738767705770395,0.0,0.6128367124008827,0.9036877953267889,0.7791737192260753,0.21489226224133282,0.6619190917096877
23,0.3414875002485613,0.4068116330439421,0.4453442256463527,0.22421824650046784,0.042693213232410966,0.584732708658999,0.9351130100980959,0.7600645119780469,0.006378236397386575,0.5924544427872356
24,0.3286826093892589,0.4032488142674072,0.46649224255414223,0.17173391238473892,0.08323122843044127,0.5721051390037533,0.9608724805613165,0.7411190105057326,0.3626242138614895,0.5337183320036408
25,0.3140234979561163,0.41403176720054713,0.48111967785579074,0.12169161684634151,0.11906218347402475,0.6148971992145555,0.9800414728027972,0.7222903195054372,0.21864753142476942,0.5647116717631189
26,0.29741216849824614,0.4481242179932838,0.49005968175991776,0.07304928562221005,0.14895599655758482,0.6367152217664653,0.9927620909355679,0.7035267839041554,0.23070411975515187,0.5740287376782872
27,0.2790230845294374,0.5388284914819519,0.49594614929958775,0.024296682733116175,0.172998116664865,0.6681811219728924,0.999663963993069,0.6847916926842185,0.4445158633905497,0.5736717829867254
28,0.25646759742169395,0.637430911690621,0.5000636445742238,0.0006943315404597032,0.1993757101967181,0.7197193830288485,0.9999999887686383,0.6661016867513746,0.7217090983183352,0.5410660486668033
29,0.2261990010997678,0.7241961579838048,0.49770086092250676,0.0,0.23046776649656286,0.8099842490355142,0.9902901942359972,0.6474096964010349,0.7770865208027886,0.5752549675864982
30,0.1879244729071002,0.7847249365485951,0.48419740975647185,0.0035288098956691985,0.2671278722737162,0.8809618724499539,0.9669525345641057,0.6287688158464574,0.41257444539884175,0.5464490301100352
31,0.14426104180116325,0.8090569738648445,0.4544726005549506,0.0535182218233447,0.30916324474184836,0.892091397641934,0.92834127051964,0.6102925440207029,0.4455262638524298,0.49103950627333437
32,0.09942709437222251,0.797477785849934,0.40409448561179134,0.09480891454392913,0.35213562815271465,0.900417429134485,0.87462764606638,0.5920626477647504,0.46942349628183433,0.4451765956747297
33,0.06130102897688757,0.7666754327595497,0.3467405787010372,0.1324312217488728,0.39801163814938,0.8446873763632752,0.8126232876833992,0.574185726273095,0.8647336451336449,0.3548189826694369
34,0.032264304697186545,0.7214406149219679,0.29033175819017265,0.1729833649868812,0.445481106781532,0.77091470461886,0.7523962065416674,0.5566875580870952,0.38872003938905864,0.28650710744512004
35,0.011763187712969405,0.6563887718825069,0.23410983227852578,0.21635906264986673,0.4926622125128237,0.7403370484003367,0.6946598858931021,0.5395477465633058,0.24434545405780872,0.2663738298691326
36,0.0009952248737429945,0.5836413068397485,0.17491978263301172,0.2601083026178104,0.5331053583259744,0.7567926241118693,0.6351417163380488,0.5227656135320519,0.03993088091305274,0.2463259905298278
37,0.0,0.5531740217676588,0.11494602046744948,0.30325050862965186,0.5655688766820517,0.7492675093371963,0.5741715324141382,0.5063634205144296,0.17926266084769069,0.22848740751482313
38,0.006971039294064202,0.5214933594821333,0.05791804891909463,0.35033058535294215,0.5910725836436878,0.7302728212847994,0.5157027956746578,0.49033831074175455,0.20202170266327565,0.22987678987294918
39,0.020275027865826776,0.4757499093544926,0.0,0.4010362229708156,0.6157708849743306,0.7661133582713918,0.4604889385461431,0.4746852254196903,0.9730666594850593,0.2470746796966894
40,0.04407873889048583,0.405796392192486,0.47062489187515044,0.4526533821898542,0.6452300652014465,0.8776709719632155,0.40308636196491654,0.4594059554822733,0.712505237414496,0.3083902040548404
41,0.08186280249847543,0.3192578588317274,0.5496433744739698,0.5017826827523129,0.6809116886363594,0.9641550891193017,0.341580154596842,0.44449949414485757,0.17362051608775542,0.42670245514658095
42,0.13524595222888777,0.24963414746771392,0.6347128741564302,0.5410299067130694,0.721029199888871,0.9999999989488343,0.281640094705446,0.42999689203605207,0.19847722011679528,0.6014546307378882
43,0.2002815511732897,0.19760724422326523,0.7163565724355995,0.5663380365610334,0.763349847447879,0.992411051805862,0.22842153240837268,0.4159397896997793,0.5485599213316918,0.7204974038027434
44,0.27210312628235944,0.15087583872013755,0.7873004952166189,0.5832073546448944,0.8069631039315799,0.9253537937917854,0.18496490683937838,0.40233921901540043,0.7703647713516018,0.7203190537233418
45,0.34389395509999715,0.11051327264349421,0.844127405042572,0.5904790883836607,0.8497298341423348,0.8072565876242608,0.1530386729258977,0.3891967909303786,0.2461294524205267,0.6725272909510872
46,0.42015341119130767,0.07481712912999386,0.8925245263754726,0.5886446613561263,0.890935923154851,0.7695630564527065,0.12973505730575455,0.37649384858323726,0.2313618666341442,0.642565689072333
47,0.5050213942589653,0.041722038913545874,0.9353187574245938,0.5766939896421438,0.925633125544019,0.8174723272146924,0.1108135343899258,0.3642151872267921,0.09134737528535124,0.7233518334443426
48,0.5940886967402511,0.014629406385467307,0.970667098726736,0.5563634064954849,0.952912509284591,0.8340986363838776,0.09605615988181244,0.35233998305246095,0.0030221504766700337,0.7821000028566701
49,0.6845297191266086,0.0036344171459930233,0.998391108202244,0.53628958571679,0.9727123426627595,0.8344210427587077,0.08629239483572675,0.3408410507079951,0.0017812632096230146,0.8209953929038915
50,0.7811477801889808,0.014238130818527778,0.9806566078917712,0.5172576246773248,0.9905048799349606,0.866624747314,0.0813850695438886,0.3296881359377454,0.08254222553594381,0.8547803108187684
51,0.8862423348639704,0.04514043305393314,0.966608361197553,0.4982359040528271,0.9999999765255159,0.9234605168419464,0.08028864010668946,0.31886591236792233,0.21866165006609767,0.8940727317390631
52,0.9999999985145434,0.10239184009873038,0.9615707868831644,0.4788706475527719,0.9854897695802624,0.9916057849782465,0.08349793770300254,0.308370712227455,0.0018276024867739712,0.9769373552490594
53,0.9124642574981395,0.16093013219081417,0.966735387762731,0.470936534113923,0.9583026996892064,0.9302382095891656,0.09163616624507416,0.29823058138395675,0.43987906000202004,0.9999999959873006
54,0.8269104852980466,0.2002364785441156,0.9773672884145247,0.4692791128965666,0.9339060506998013,0.7681412934509585,0.10219806032242966,0.28846136297109953,0.6685242004128028,0.8702908279570575
55,0.7612223243659673,0.2378849177628619,0.9901455878192795,0.47526146042471196,0.9129459202950655,0.5845063283540661,0.11236685487695727,0.27905224801888245,0.6303593473276766,0.6865853530900736
56,0.7094248676489042,0.2848326667782197,0.9971104639388708,0.4987782086643135,0.8984053677453012,0.46997327283154267,0.12085061415321478,0.26997872442818716,0.3028685269212092,0.5569294071169694
57,0.6680565149050927,0.3417092552086178,0.9851170549947433,0.5343551808392693,0.889281381847561,0.4373731487713471,0.12738440043925625,0.261215372605035,0.06303186034262237,0.4943317448824708
58,0.6418766232950769,0.4031466638621497,0.9762229032235733,0.5818587718141568,0.8870077630960959,0.4210875510799915,0.13130606155764155,0.25273687937369266,0.0939632388601308,0.44888951823412804
59,0.628589368816604,0.4571248424047698,0.9708148825150962,0.6400538262464462,0.8883527741448302,0.42982406132514733,0.1317523042311906,0.24452269014119524,0.09847039432950974,0.41987438160096413
60,0.625554579374163,0.5042462744324784,0.9684939575390002,0.7051499581172724,0.8904853863504711,0.4829287311278968,0.12918899240938536,0.2365511031139076,0.24857097612833795,0.34398251451781775
61,0.6279445045508673,0.5368652272564003,0.9680269836898691,0.7727646691922224,0.8906181602106299,0.5507954010563203,0.12502790506864847,0.2287980941360058,0.1214660357240168,0.2713924923384991
62,0.6304034060260422,0.5517166640621802,0.9677839458957411,0.8376115032652404,0.8887581089743725,0.5768616541344312,0.12092824664897782,0.2212474041016139,0.020704058706271698,0.2126703297836724
63,0.6304096460822773,0.5505921063186922,0.9667428374409897,0.8938492518340866,0.8844972831984083,0.5636835946820649,0.11799386136361584,0.2138877521549103,0.020897996861959423,0.1749904440364818
64,0.6285419707352341,0.5356984782170972,0.9651366358704706,0.9386384739283914,0.8789121879514363,0.5516868669892725,0.11629060921201319,0.20671167051959882,0.020336269186941754,0.1801437398334046
65,0.6212880427079859,0.5161140498512949,0.9614992190339111,0.9730262891918037,0.8724323777582537,0.5178122271191369,0.11604111567005261,0.19971416500636024,0.05441552090286256,0.23475728498388157
66,0.6102157382166489,0.49516615263034586,0.9561296564935381,0.9937228230187624,0.865420354683496,0.4733831339904205,0.11741694890772246,0.19289386023546173,0.25517854234508114,0.2874154991467239
67,0.6000792975484404,0.473600158058482,0.9507191525589748,0.9999999588536507,0.8598327821214186,0.4084049198406781,0.11924187044981079,0.1862500312421583,0.3722204068951768,0.29314031359899156
68,0.5881302987812024,0.4652696010236497,0.9442578301189384,0.9907968829452453,0.8534776461972882,0.32244319272016275,0.12100199614249178,0.1797843353449624,0.57502499597673,0.31713841125389963
69,0.5753825772526557,0.4671798085627321,0.9375173675978288,0.97004938732039,0.8462305676712115,0.21646285839975332,0.12325967704302618,0.17349926604573604,0.5815727842994921,0.23657724132346525
70,0.565807415555255,0.47310247327510935,0.932292055024078,0.9430985361209431,0.8408676408978212,0.12164101694405831,0.125543907911418,0.16739303536084033,0.44555071764448445,0.14393882135024927
71,0.5646231045478021,0.4811268275848414,0.9313143325069881,0.9137991520634491,0.8401753508901123,0.06883417382560521,0.12635155868931638,0.1614717446808236,0.4182500541591979,0.033367107679408294
72,0.5689829362252908,0.49187797076456863,0.9333791668338877,0.8842209185974224,0.8432480612780783,0.14077761378064763,0.12516888634420217,0.15573127112295104,0.42801274320913013,0.0
73,0.5768229262710337,0.5054686203956477,0.9375337314210122,0.861672843284086,0.8487942435243887,0.2147722167123902,0.12274150167901904,0.15016939729478374,0.36579569645578874,0.04606410900442401
74,0.5849269572894618,0.5278426806278197,0.9418447392515668,0.8486603045017747,0.8550735674077636,0.3040378273512159,0.12017838579894946,0.14479107595310525,0.23818706839681208,0.08592842951041679
75,0.5966274996480225,0.5535057192766535,0.9473011191962608,0.8427703557384403,0.8637442904748467,0.3740421277842993,0.11763275499835518,0.13959585900729765,0.14709547871857714,0.10078629891628109
76,0.609052635965068,0.5840609471409451,0.9527234980453132,0.8393914534101627,0.8735990079605612,0.4578474334064594,0.11506341820989428,0.13458754892282881,0.20831086280543537,0.1070925270908668
77,0.6209456779872252,0.6140874872893415,0.9577603719626004,0.8341167782612012,0.8833039412443275,0.5658304273320576,0.11310575732000173,0.12977265269276422,0.1160472527818876,0.14410070148380305
78,0.6254556814010123,0.6372607119209934,0.9603090533415246,0.8208938160310205,0.8895605930870706,0.6852165494361487,0.11243951496277518,0.12515201951635405,0.18399313481791246,0.16924495604214804
79,0.6119709846370637,0.641712869814607,0.9573133275946224,0.7940935811633657,0.8891463639761954,0.8212659355347737,0.11509807477489277,0.12073305012590928,0.27390912026544256,0.24137760424949525
80,0.5836526416698345,0.61896309584863,0.9494335418434293,0.7574439037224421,0.8822512426136424,0.8483950750273268,0.12288619037002384,0.11651133668239365,0.4039741368890929,0.3529723854927455
81,0.5559597295251956,0.5806061818302043,0.9408183391359414,0.7145130573992323,0.8717817827289879,0.7392936389930278,0.13386732517380356,0.11246327206221407,0.6531068204251784,0.4260562215390807
82,0.5335539920833497,0.5461914519869238,0.9324094352109984,0.6701051769887433,0.8592430761132734,0.5823269980617244,0.1445513709289827,0.10856519730186445,0.3837515635762965,0.39429051803057574
83,0.5123290280173289,0.5326989227601531,0.9222452088054371,0.6294636807569756,0.8449917411537166,0.46699562088969027,0.1541562605089514,0.10479281809197326,0.27086422184034054,0.37808139840874194
84,0.4872034594413383,0.54849966741035,0.9077949341751111,0.5998370071853069,0.8273323977112677,0.4116105160397446,0.16426058603863564,0.10113094598532818,0.027432470559159844,0.4297803913293541
85,0.4598212986077631,0.5952685959826834,0.8894672611923574,0.5826287051302709,0.8086124294078347,0.4072550594310877,0.1756262925397609,0.09756472307484658,0.49424089861893683,0.5078856359762695
86,0.4379561293836216,0.6526321148327916,0.8716362015906102,0.5737698184320686,0.7902141608539628,0.4628901476733923,0.186523792390115,0.09408897632985709,0.4714832519642634,0.5842192523652799
87,0.41812671351311725,0.7146243388053237,0.8534544340585362,0.5723822398773791,0.7736201273462587,0.5237008029437794,0.19527082478378044,0.09070972308515424,0.521447004662446,0.6676027879384993
88,0.3989981926027347,0.7763397490281021,0.8343238194716824,0.5783861718707193,0.7596033294957661,0.5946817037891496,0.20185064103290287,0.08743463997093999,0.5902938309997947,0.752245423378645
89,0.3753661765189218,0.837154908683749,0.8108916524151406,0.592584300380189,0.7495551534633442,0.6728308707089022,0.2082436256106154,0.0842663324539583,0.32980832830048756,0.8119275730113005
90,0.3499186151936466,0.8934998041380816,0.783869281653909,0.614086270029877,0.7398208529045024,0.7115019595427775,0.2162689787733302,0.0812015992716436,0.13849362909497198,0.8299218219798128
91,0.32462961565575293,0.9439093414477463,0.7547071977484098,0.6408907543341709,0.7264281587773144,0.6853756175766643,0.2259554644163201,0.07823627158387926,0.7759060100369454,0.8026890547988316
92,0.3034828540269732,0.9748579429703104,0.7283702292231987,0.666313028367015,0.7127962689995126,0.5920298074419208,0.23664569526784957,0.07536690670455636,0.9821663383653891,0.6782467073778965
93,0.2853825509637778,0.9917118774110099,0.7052005200622283,0.6843293067071681,0.7039088443500686,0.489672238467485,0.2462783740991002,0.07259153199090164,0.9999999998338939,0.562808861772798
94,0.2700356497322133,0.9999999935855339,0.6842904511309958,0.694192793099837,0.6952540355152758,0.38288757055031936,0.25406473891927756,0.06990965507746132,0.9859368661851384,0.4281443032861649
95,0.25879019241586965,0.9986196622477906,0.6673327230420226,0.698051902436576,0.6878141416770914,0.2757327082443005,0.2611584622986717,0.06731725719825056,0.571935190272776,0.2634959535719335
96,0.2510481823238474,0.9933038899875271,0.6547088930343216,0.6985438267854344,0.6838804487853513,0.21026744071702194,0.26656911766085273,0.0648071960655076,0.5524131172930984,0.20068712577850994
97,0.2463189053240569,0.985109826590594,0.6463404529600907,0.6980379167943841,0.6833173382127461,0.14910373826695633,0.2698320556891978,0.0623713479858477,0.4369947615636591,0.12872578564415177
98,0.2429952014845828,0.9758795026296567,0.6403595074228048,0.6968946210410174,0.6828409728840763,0.10681907122843866,0.2727333360265546,0.06000146277169981,0.3907957153027211,0.0832631088906355
99,0.2411081894673868,0.968326771632929,0.6370393386368721,0.6951881035214144,0.6819440989934468,0.05981393291840935,0.27534389244474583,0.057691042709892934,0.07978249671338215,0.0555442519382653
100,0.24066341530845947,0.9605927048911478,0.63598581405169,0.691947486881633,0.6814450550449174,0.04133695086356441,0.2771436636816387,0.055433704148084434,0.18695008336400698,0.04410699678679012
101,0.2431681806063338,0.9458002147119113,0.6394403954085955,0.6819790539448819,0.6827850973527221,0.06836263601709501,0.2775545960371065,0.05323080071934006,0.3162854969137913,0.02379769602839843
