Frame,Center of Mass distance,Symmetry,Grounding,Arm fold,Leg fold,Kinetic Energy,Potential energy,Bone length coherence,Torque,Center velocity
1,0.1732375795572962,0.926839636945546,0.311203241619246,0.07169763628838169,0.37096398943012204,0.7000477811987257,0.7946322147801335,0.9999989010290673,0.40619985754226906,0.279935803155926
2,0.1430196542335029,0.9603943777677411,0.29631883933212905,0.08469966888031409,0.39904137527966044,0.7000477811987257,0.7946322147801335,0.9541811612714505,0.40619985754226906,0.279935803155926
3,0.11297971913973817,0.9852080121084863,0.2778576897653453,0.09271554424986223,0.4290190099542075,0.758419064837787,0.7480340428093419,0.9094445377463688,0.6312391896136668,0.2725316910129385
4,0.08279813047451517,0.9970298757229481,0.2530768792818526,0.1680053209561714,0.45998972727270687,0.8355511755298851,0.6928780360629453,0.8655883890321722,0.5706433944729001,0.2942051014094617
5,0.05405541827970877,0.9999999953747488,0.22164996377811105,0.25964270889060886,0.4935892301605973,0.9037969920959869,0.6292487968033529,0.822421386154301,0.06700525312333469,0.3609750097146828
6,0.02986047511859011,0.9954869099409325,0.18243047809812798,0.33506766984834885,0.5293141797547918,0.8960403734570692,0.5616903406732652,0.7810191396880779,0.12253802837346195,0.48574557966385784
7,0.011012069676029204,0.9850629447612891,0.13623913417601133,0.40103243161438523,0.5697288105496859,0.8808792136024082,0.49205695777768765,0.7419408048063243,0.3989427029899212,0.5497481600677455
8,0.0,0.9686834082749555,0.0860218261748029,0.4521576896185199,0.6195425715592676,0.8464607533053411,0.42263435977375685,0.7059128785853181,0.9999999998724632,0.583487214108041
9,6.318381506763847e-05,0.9489535959756086,0.03993438177634848,0.5023471454727471,0.6680646721465411,0.7363146202278674,0.3594189921620002,0.6727005305382537,0.8022904720804115,0.5260345898587341
10,0.00826408739562969,0.928463055399476,0.0,0.558070274620245,0.7133649078012746,0.6444825516663111,0.3049077339598513,0.6416158379190479,0.09600195014511398,0.4554933505897327
11,0.02432127675860533,0.9042393249331843,0.037341528139105275,0.6063518094436403,0.7486606273987598,0.6220951977779813,0.2567496404517344,0.6124998927549524,0.05673274291803725,0.4806946329153989
12,0.047108175248624276,0.8781864633542719,0.07272829488617617,0.6468468342534625,0.7729109569506608,0.6181240666369701,0.21318208069783734,0.5853433069193442,0.05462882432733914,0.5333855091020275
13,0.07396858837639339,0.8535098874147814,0.1049902694649672,0.685814879387613,0.7887966425179692,0.6096367372836723,0.17424450356783014,0.5598550887719489,0.09720450684435371,0.5562666137227712
14,0.10415340547279027,0.8301575692205001,0.13594108177844721,0.7245931053011277,0.8044459129817607,0.6257530414958581,0.13885616081772764,0.5357258861916321,0.38351512425336004,0.5646985385529382
15,0.14197437988103165,0.8076753702615138,0.16954306419238602,0.7669973974837274,0.8253199593925302,0.6810675059212792,0.10369552755558807,0.5125858000283526,0.350800929474508,0.585089891751038
16,0.1928184303716054,0.7781623293612614,0.20815509848071403,0.8087785197352568,0.8522790127110941,0.7329575214357579,0.06617053597771766,0.49039162288131305,0.9530251101094397,0.6339327688504329
17,0.24162671698975116,0.7448552186168187,0.24039191891573825,0.8369809575920141,0.8808078508312556,0.6243501291259183,0.03171402727386559,0.46936729247475173,0.577439993663678,0.5496451586004947
18,0.2942433149505187,0.7078996667080755,0.27017115731584496,0.855512120060528,0.9148934865750998,0.5669981047253688,0.002719978994984527,0.4495378135244325,0.6627160383676082,0.42012142962110804
19,0.34427348768540456,0.6706985984679339,0.29452424145373424,0.8582671898263347,0.9490055394479509,0.5002490647089195,0.01866111930515334,0.4309305795961985,0.32805956888675214,0.4338576160032633
20,0.4015725454403735,0.6188635479726842,0.31807785952914547,0.8426373943619834,0.9649609773965301,0.5667522574015756,0.03389389612294157,0.41362099115014306,0.347377791423493,0.5308908753196839
21,0.46746601354665956,0.5569184849285502,0.3409293199538919,0.820657778142131,0.9475977435624121,0.6182298170269709,0.048401100775984224,0.3976289597821372,0.32171607273660763,0.5508938103107346
22,0.5356564759998498,0.48462786305640676,0.3605078974754234,0.791088072536836,0.9253128331069064,0.653381626687712,0.061388896199946544,0.38299246313383634,0.04464563833605419,0.5825557982257865
23,0.6018175303826978,0.41472853303056745,0.37641760091788873,0.7548487915257973,0.9100944113351223,0.6371016408997933,0.07008583307963703,0.36953093220198424,0.19973592509024124,0.6084953748479476
24,0.6608234433608184,0.35410469319251625,0.38823782959830333,0.7172868139341804,0.8999454476258723,0.5748623477697722,0.07435390218234993,0.35708472908639166,0.4019618678838355,0.5633869739081395
25,0.711259179301706,0.310169976464887,0.39692668004152065,0.6853150611807924,0.8954644765945323,0.4726550655174753,0.07584101970899783,0.34552649964474863,0.34996415509147916,0.43365748345458077
26,0.7533344838835162,0.27936719599134346,0.40330449604762797,0.6659188381646639,0.8945137239436042,0.3802404583579474,0.07579112400657025,0.33466869064548477,0.11532807245995136,0.37498487731646357
27,0.7922629991994787,0.25698992167983176,0.4086383041429132,0.665599418622296,0.8973390537686518,0.34109393822452766,0.07481436494632593,0.32434796500626484,0.0722426528655315,0.3661991795968559
28,0.826006900567002,0.24307305321604664,0.4125839343185957,0.6781689471110466,0.8998745358361577,0.30368529276782547,0.07378466018698608,0.314418637787392,0.21962957959139104,0.30769449565568513
29,0.8598924565477687,0.23736406919092828,0.416080017382821,0.7067955468744936,0.9034092307496733,0.3370635418927068,0.07276065601213107,0.3047173365915816,0.10897687910367951,0.2859453369933367
30,0.8950104556653995,0.2361284398262807,0.4192514163267009,0.7472364783829624,0.9072992364896115,0.36489615499485994,0.07115223975855398,0.29518626762282046,0.12988072606790935,0.31692127935466324
31,0.9352368383199492,0.2262022825769358,0.5829142001633473,0.785594382575621,0.911425848046996,0.36260227382194027,0.06830715967183684,0.28594487973347943,0.37199912253053047,0.3735679771920875
32,0.9599034542803876,0.22051353383612876,0.5814131412585649,0.8136426797181333,0.9148602126553302,0.25430141860861266,0.06412547524591818,0.2770642579068169,0.030246466979624187,0.31786038929321414
33,0.9842297058436525,0.2108598119045816,0.5802507253093216,0.835387595190567,0.9161089105180978,0.25408083552036237,0.05995493630280618,0.268517790899331,0.024159528514772235,0.30283353655812223
34,0.9999999984760463,0.20186255888218826,0.5795185319569177,0.8553150099455356,0.9164598083792672,0.2401665608529904,0.05725494755824847,0.26028023584302007,0.12422764041830354,0.30533710688579246
35,0.9992047319972902,0.19327785053210272,0.578966310754223,0.8730454001106794,0.9176475262131215,0.27986169557949686,0.055889312012608126,0.2523210549623128,0.004352372499338596,0.3981808056041068
36,0.9845089106998512,0.1880255232055012,0.5787510380819861,0.8899317689850312,0.9185109023510634,0.2775045279530616,0.05609169459899665,0.24461144884359765,0.007644449571453388,0.42988021681370686
37,0.9682424228526086,0.18832301917991692,0.5789759124963506,0.9080039755028187,0.9175537706917216,0.2751927636490493,0.0582162290453135,0.23713066631524557,0.15291684465959665,0.44527483250278516
38,0.955714361752247,0.18791205548726317,0.5794800443014991,0.923567259762932,0.915433020358654,0.23140818892569082,0.061719419645354975,0.2299019061491311,0.2540036095113377,0.40685932913931855
39,0.9454801080324277,0.1802810037615459,0.5800454174703011,0.9258454247248917,0.9140283007678625,0.16908453098028287,0.06537206254440846,0.22298782425957295,0.06518367054997622,0.3277962314120153
40,0.9349104537474953,0.1677327230229647,0.5805973562688156,0.9107715605392572,0.9136497023241026,0.15742214135719837,0.06822710240223302,0.21640334376525444,0.009681811588990851,0.2824836574173237
41,0.9276191139217197,0.15486100702401717,0.5809809014890098,0.8893174474300843,0.9135899828908427,0.1458434869922691,0.07085613928257473,0.21014423299168278,0.025227248167688236,0.2589744572474695
42,0.9198983951151319,0.14449756518174772,0.5813934536528581,0.872839047427088,0.9138120910447174,0.1497237568718895,0.0733494837289084,0.20413598315966713,0.01927211202261297,0.2791390783157785
43,0.9118469151572097,0.13599274385366927,0.5819932801316472,0.8643133346062282,0.9124687300808392,0.14680670611917027,0.07495025050613788,0.19833596176016588,0.001739269729074126,0.2381704956462491
44,0.9018406637902009,0.1293336417633164,0.5829256980478278,0.863018732786229,0.9094368038248825,0.1533192383171578,0.07555667137935514,0.19271767233140022,0.03281044456775984,0.2237358573189507
45,0.8906083330994057,0.12286728963943558,0.5844484213875785,0.8644858522545438,0.9020244633570766,0.16375037213589771,0.0751559299217018,0.18725755145677397,0.01604085808041355,0.24576205222878447
46,0.8763654626625165,0.11168415300728485,0.586493874864918,0.8580167324034619,0.8913561291613411,0.1742651575796756,0.07355290245762591,0.18194889775265122,0.0013141215499093283,0.25974351026717296
47,0.858590954695471,0.09864017343724915,0.5889837518350164,0.8555558317877273,0.8802341066602313,0.18415818711495965,0.07078563975927603,0.17678819841593904,0.01763907395126428,0.24796693934534592
48,0.8381679586967433,0.08703466908443055,0.591716133309016,0.8611042142660104,0.8713742635758405,0.18490822315643612,0.0673172138170314,0.17179708934975618,0.021676145388814343,0.2261365951904922
49,0.8180870096936796,0.0776522925397537,0.5941670788456982,0.8656252023764375,0.8669708774820886,0.1694973711452579,0.06372991580986463,0.16700994211745684,0.07397420658641901,0.20203198744731685
50,0.8019768633911174,0.07305352915924646,0.5958440352113038,0.8699647309846351,0.8677933852293239,0.13266578844087273,0.060919434385403495,0.1624318202761533,0.12488570287456549,0.16081478209483444
51,0.7914790750444483,0.07265998136920189,0.5967998926744428,0.8747772297723039,0.8709596253036626,0.07972537774570916,0.05957546189435595,0.1580542383186029,0.130412790777912,0.1006439884153468
52,0.7896083853782924,0.0726014714428988,0.5966490484987504,0.8750750645444112,0.8753206008745857,0.012001667852619613,0.05990923592688662,0.1538667463592582,0.005680638355812516,0.02961103468520079
53,0.792289158411098,0.07277290937644318,0.5961542763750036,0.8723983530673619,0.8772929267413434,0.012506260107380823,0.06164504107284855,0.14985617887312652,0.08307540284609971,0.024314584537766724
54,0.799658988207222,0.07601560745869079,0.595312389170311,0.8716636531371097,0.8776477419310486,0.05532896984445236,0.06431682958070888,0.14601006750963608,0.008126627805849487,0.06082769341324299
55,0.8078202630465325,0.08167770977718032,0.5941962471631697,0.875686903779233,0.8796968568403656,0.06949886499524933,0.06734956979265012,0.14232201640376851,0.003072162869924103,0.08190337497056237
56,0.8158826501235897,0.0872080920695449,0.5927378312896007,0.8779041902601199,0.8845876780437076,0.07688918349538269,0.07030822335657091,0.13878345590874536,0.040889688050616206,0.1053469132687426
57,0.8266899866262428,0.09088443470925066,0.5908203472493555,0.8734269761004226,0.8910028674422448,0.10206100315289822,0.07328868193050778,0.13537909713582436,0.010455978883609886,0.14837177839583462
58,0.83874063099524,0.09269382800579858,0.5890409185097839,0.8636504360630274,0.8959921070464297,0.10079359493296668,0.07593805411049,0.1320953955206339,0.03607871052752419,0.13831733178377592
59,0.8500680716706275,0.09286489095347035,0.5878307762540833,0.855746494542165,0.8977389279365752,0.08562043386803847,0.07768258400816194,0.12892964697608336,0.011569702695055655,0.11542677491166381
60,0.8595775190972011,0.09157163259765684,0.5871039082376492,0.8454241734250182,0.8975162774525774,0.07370254418027836,0.07825909847146845,0.12587769098896984,0.06904410502787427,0.10582268506813143
61,0.8652625152497952,0.09045941982876066,0.586791690244688,0.8345725104917857,0.8968712472914651,0.04327418635053443,0.07787033902004775,0.12292947438355672,0.0892116623774355,0.07084199609249037
62,0.869061492542377,0.09002853415897664,0.586974809183834,0.8174560924324732,0.8960415974404004,0.09017209504376611,0.07624659671445676,0.12006889916871116,0.003999945941566885,0.1275345124799614
63,0.8720130959385267,0.090230806494897,0.5870409724489143,0.7932442191793944,0.8975660257265786,0.09328927426802126,0.07352042061283326,0.11726132530789463,0.04934788001911353,0.12441389414446971
64,0.8761120610002485,0.08736632572088854,0.5869861456944971,0.7479353637014811,0.89697951311002,0.06477104415651688,0.07098437364518094,0.1145215531982848,0.009135276051588877,0.09445647797824161
65,0.8785147798265021,0.08013569512058678,0.5869787628423572,0.701969555710086,0.8965142838726127,0.05817155372801303,0.06863865412008976,0.11183614090707707,0.018877596886962163,0.07177411218147542
66,0.8863775367552177,0.07470875701354525,0.5861287262598924,0.6558590384309034,0.898672941140033,0.05890717260484517,0.06700281308307558,0.10921336491980463,0.013747103937348534,0.034345016476991154
67,0.8955577598065289,0.07227961598437366,0.5851450318132746,0.619125801556421,0.9017128015153739,0.06036431852322053,0.06660665260196817,0.10665662658361198,0.0205956152045159,0.04481453930047349
68,0.9062477953277834,0.07465958385511148,0.5844527381371905,0.5962658566605153,0.9021178282588556,0.06230500288770455,0.06650983802561365,0.10415622931492134,0.06868413496280436,0.04725922434005686
69,0.9119439460368484,0.07669674618536296,0.5843864941852014,0.5859997691547775,0.9001506960814939,0.029770369972044325,0.06619184357862574,0.10171594115980657,0.04722153221192133,0.021591554180026923
70,0.9186007462723851,0.08776181607475704,0.5845220078482531,0.5895059905215949,0.896631159103321,0.04358131441034594,0.06582252824394128,0.09931201103486692,0.06179547185763926,0.026109857529371627
71,0.919258133511769,0.09145649940955647,0.5845593255434967,0.6034014523188893,0.8971944153399324,0.02003816052361099,0.06504346122462075,0.09695671073629877,0.05753000019564777,0.04254601405072506
72,0.9189194252492839,0.09529458956608856,0.5845541615813441,0.6210491343857241,0.8979728917423805,0.04257398845628723,0.06407215563713699,0.09465723853923487,0.010216579105610633,0.07537994209501568
73,0.9169796045271567,0.09563630162567688,0.5846775722081006,0.6377880986462471,0.8987173290838668,0.05195354440933167,0.06303843250222341,0.09240894174249019,0.0016088453945458218,0.09028435524399465
74,0.9148814489580434,0.09515482094502957,0.5846466691220934,0.6556860376454654,0.8998721165489947,0.055631482150246034,0.06162339219204237,0.09020512849285944,0.001454481438836262,0.0778581676494988
75,0.9125916787134013,0.09365972417976715,0.5844725064298059,0.6660915931886808,0.9014386491261086,0.07308449550086005,0.060578197183260483,0.08805380175468688,0.029695806823936126,0.08149202408550138
76,0.910786094934086,0.08924281894565886,0.5844251432144375,0.6670886458083961,0.9029490010652204,0.04923029650121051,0.05932876662983931,0.08596526995330904,0.0009862029737736325,0.04287141883583258
77,0.9116511845565751,0.08388341365259605,0.5840262674816026,0.6575559219731615,0.9061104921044587,0.046803346037777804,0.057977869012754535,0.08396673297667158,0.14959911371961027,0.0
78,0.9122603013115262,0.07240097266248897,0.5834156289570566,0.6403381706978329,0.9107385509205622,0.10165115954670177,0.05688070760998228,0.08208245721107263,0.13732150673397917,0.1075789303499135
79,0.9123179789582176,0.056572955495235715,0.5826759720656038,0.6202577316220761,0.9165009153371175,0.15620819439340372,0.05503020516116002,0.08032867427762043,0.04488206858143244,0.2071063007211444
80,0.9108775660865227,0.040180348490962164,0.5819453521079182,0.6056222939886631,0.922808742671378,0.1794638613604397,0.052403730714980036,0.07870381799863414,0.045042791734143516,0.24764797403512015
81,0.9100670205493046,0.027795785103140937,0.5812827915576659,0.6084770271956373,0.9279232090754818,0.16426051358171115,0.04952600257108963,0.07718981720421457,0.07623538979987543,0.24555907119987863
82,0.9085920533110207,0.018640731227836414,0.5807203231175746,0.625381897878358,0.932029494043157,0.13930300315853708,0.04655164054654303,0.0757805441108136,0.030634833783850807,0.2120288672570169
83,0.9075491770213205,0.013093208752089932,0.580199005000887,0.6492956666735293,0.9372459041734155,0.11709355300645224,0.043342605969159835,0.07447051707743552,0.005878997015051497,0.15675868837366974
84,0.9003214843785959,0.008352090211175923,0.5802059037315752,0.6865675123416668,0.9411239895908841,0.11723057676360464,0.04000540519859018,0.07326131625718502,0.06146084595564545,0.12593801667295854
85,0.8913856562719444,0.004549366246023014,0.5804341266526479,0.716798017528662,0.9433169189847475,0.09985345211212104,0.03696418651513479,0.07213789172414524,0.20903124367380252,0.09357637244384893
86,0.8826442861046777,0.0024026659503512183,0.5807973387718663,0.7409379172553969,0.9437654495324236,0.05325875007514499,0.03474117862838188,0.07105667306647837,0.10625909717924499,0.026532373933847053
87,0.8721859379777678,0.0,0.5815438137070985,0.7610928453163357,0.9427876174772193,0.10567429315819546,0.03311920889226241,0.06997509666154478,0.22898778090742486,0.16655513727197427
88,0.8601112123503922,0.000636674210781758,0.5828168917515341,0.7805791766800955,0.940575068140075,0.17359716146387077,0.031720495042654916,0.06885731245232946,0.21977789058175248,0.25208904035346363
89,0.8461265011895707,0.010555126056749402,0.5845663453045478,0.802904216007479,0.9381237667375644,0.24365829354738797,0.030433099833794507,0.06766013062089421,0.17589219521853114,0.3236898788137534
90,0.8295927459989386,0.03287749188880284,0.586763086735577,0.8333953432727976,0.9344985478388349,0.30072070789626015,0.029318205635529563,0.066364239880239,0.06123228977293975,0.3751916539206825
91,0.8136803164691059,0.06407846150703575,0.5889181533782966,0.8695393451288608,0.9309506604595836,0.3224636546003839,0.028878189809779176,0.0649620200639618,0.37519969190249197,0.39562324046709973
92,0.8076267316304357,0.08671361757315832,0.5901805404073379,0.9010199105350839,0.9272716260540302,0.19620006032237727,0.02914943658761801,0.0635069802499847,0.5372741858651666,0.21018236524665942
93,0.8064709268165979,0.08454338367019855,0.5910095983935577,0.9017727450380922,0.9204376879810019,0.03927690765820359,0.02942972596565729,0.0621020704828503,0.08083573801298409,0.03708575419963283
94,0.8045158595360102,0.07279453569149749,0.5916063184263644,0.8836819313297105,0.9154803276320179,0.07441228696362552,0.02970905236106201,0.0607937681195786,0.017665246694551533,0.07835603586507779
95,0.8005012788690572,0.07256709043701894,0.5924793104343355,0.8703096623186986,0.9100067428282164,0.05380543663359655,0.030339004396368774,0.05954507992132046,0.03318644064744251,0.08267047412102602
96,0.7960661949123027,0.07999265499438178,0.593312644826713,0.8628962562006464,0.9055481304256723,0.06314001275549709,0.03084453621718999,0.058319476004623214,0.10970974351720943,0.05312582238387736
97,0.7918681185892602,0.08547902368339426,0.5937359283494097,0.8533610898880624,0.904262424534654,0.035145386705320185,0.030953478563328713,0.05711989824876924,0.09305640073768824,0.030445387969507298
98,0.788305261243521,0.08628640075149029,0.5939002068953896,0.8404769962036233,0.9048042003355738,0.016856435445176565,0.030756917286168816,0.05596599591150048,0.01686192593320918,0.03984951064545142
99,0.7867085771384,0.08673687351403525,0.593808828971361,0.8342703936037931,0.9054900582283796,0.02062810417359097,0.030783725978665126,0.05486121368944032,0.047000105922964455,0.038258774842241654
100,0.7860992461899676,0.09143552938981382,0.5937486768809739,0.8393790768519359,0.9055023410343038,0.03101375844507258,0.03151038191421462,0.0537962088677172,0.07681728210134067,0.031731506639428315
