Frame,Center of Mass distance,Symmetry,Grounding,Arm fold,Leg fold,Kinetic Energy,Potential energy,Bone length coherence,Torque,Center velocity
1,0.99999999826376,0.1449301568808857,0.004630065662218606,0.9999999665612447,0.45635547565492446,0.00908518858983449,0.44300816711258717,0.9999995624628192,0.010831693594801876,0.009524078276261538
2,0.9992060802472329,0.14601889066951773,0.004605027772855897,0.9991480719080079,0.45615234244497394,0.00908518858983449,0.44300816711258717,0.9985745106106398,0.010831693594801876,0.009524078276261538
3,0.9987228712112881,0.14660895061037116,0.0045845326229133065,0.9988999203082025,0.4559775709609078,0.0020201613629314244,0.4432738831501814,0.9974003478027119,0.011001592536321825,0.004603209644093027
4,0.9982122937882568,0.14720411670296216,0.004508045568488686,0.9984519636726834,0.45563918915199464,0.0007317383531836966,0.443518482400313,0.9962791161661807,0.011422940121262874,0.0027265490533654804
5,0.9977324611660813,0.1477690042972326,0.004518757981912324,0.997936466433274,0.45553303902554687,0.0002139942740779637,0.44371388278370866,0.9954152741766998,0.011375286736376323,0.0015693637207396484
6,0.9969829672625224,0.14819130987529014,0.004363776616109888,0.9980146981691784,0.45482193195962173,0.00047737967658604863,0.4438467411051703,0.9946857693867839,0.011633663831902667,0.0025310714318637663
7,0.996098819325705,0.14867932837422326,0.004344633723483195,0.9974623952263881,0.45448153103925243,0.0006877144723277701,0.44400105241470594,0.9941094080509555,0.012983104150657503,0.0021037855057333293
8,0.9941221613992104,0.14923624910261563,0.004308524227347307,0.9968917408244339,0.4536928954950461,0.0053893912573357355,0.44438625364092543,0.9937120706675465,0.010925803220305069,0.005482109816480842
9,0.993224106027513,0.1498268157537316,0.004327624861932924,0.9960428059406536,0.45353169789949094,0.0023761042150240727,0.4446964080798206,0.9933433663969599,0.011958293093818389,0.002594353220000215
10,0.9922308512110539,0.1505536848754921,0.004397308371737436,0.9955246408670093,0.4534682694177815,0.003813544104802385,0.44493687058625386,0.9929146077108051,0.010748825993107447,0.0019448302096241837
11,0.9912824734232857,0.15088038380408794,0.004280295855880148,0.9951601313496162,0.45282578054598965,0.0,0.44511227964681394,0.9925754085481885,0.013111402257342553,0.0
12,0.9890423986179682,0.15166006589812786,0.0038760554345398587,0.9942435077647638,0.45089120207814737,0.00623463048836188,0.4449363374498782,0.9921887050400009,0.01307286655544469,0.0026563799859775305
13,0.984288616958447,0.15176214415730407,0.0027810862020958417,0.9939345646617893,0.44604297786555197,0.013998677722826074,0.4444956684117197,0.9917712445412477,0.013958842961407321,0.004318490789832148
14,0.9780517911951082,0.1518749253717431,0.0016773272970991167,0.9930758113423531,0.44070472827881874,0.021308432738535246,0.44424622601378727,0.9913003187488859,0.015064286141442155,0.0079968285480775
15,0.9712673290972214,0.1533379053902682,0.0012330262527784463,0.9916881255363301,0.4367995579970959,0.02707759894997516,0.44473227671623267,0.9907155932889801,0.01746419166083506,0.016329506577237134
16,0.9632036375657612,0.15683486015436515,0.0009871267115094586,0.9884827311577812,0.4327524295945941,0.04019668960198836,0.4457091846422264,0.9898512400727972,0.020358484741712177,0.024526658660820336
17,0.950596556817613,0.16213497698340806,0.0005549537249897678,0.9832500980005184,0.42563321775881513,0.06055793341812685,0.44687854473353344,0.9887064729301512,0.018307973237376478,0.03560328120392273
18,0.9328000779560651,0.1689318117946839,0.0005144493925775819,0.9768049372296097,0.41293163882625944,0.08064485068248003,0.4479324031945995,0.9873455726886068,0.027124697430901484,0.042814049503830665
19,0.9101112222647412,0.17918302652574208,0.0013961422914960677,0.9675999285287218,0.3960012287307546,0.11022793846055044,0.44888555644361405,0.985723278294209,0.03175806443242683,0.05514337596351048
20,0.8834507229526403,0.19293037296326573,0.0015552226872870439,0.9532913414050928,0.3761236820263049,0.1420504981885345,0.4509058802203335,0.9835782295873028,0.011864174366540742,0.07061223176972409
21,0.8589455269905701,0.20778939860845924,0.001140269852523117,0.9352498464892506,0.35735930613469696,0.14311394326998825,0.45384622786425094,0.9805720193235549,0.034986538323109044,0.07848467396095635
22,0.8313805774557085,0.22309488824389248,0.0005422551836335302,0.9145503454079331,0.3376984625408066,0.17230978036665423,0.45809023481454536,0.9764080102460065,0.0392854654012876,0.10258455115335659
23,0.800878367690238,0.2379767616204553,0.004349239849965098,0.8894834714507509,0.3190270567505508,0.20675697924699651,0.4649645276714659,0.9708529202757987,0.05754029599341592,0.1325170588677475
24,0.7647533066710548,0.2503685296338837,0.011399677075291362,0.8539961166767975,0.3000322184052814,0.2647067690691593,0.4752405954591241,0.9637763730693552,0.06113588553547474,0.17886150952923957
25,0.72496171134214,0.2592219080443702,0.02240358646648668,0.8108212593912754,0.2805741468286756,0.3248470928495683,0.4898937536251855,0.9550213368113095,0.07073422649181396,0.23351741714247862
26,0.6805510557099539,0.2623727736056927,0.037960641320554475,0.7628582966011169,0.257034542768789,0.38642856249154806,0.5106268330099264,0.944447751630728,0.0602243163095598,0.2749960486088872
27,0.6336426176111227,0.2646706950280612,0.05783327749483648,0.7127447996005762,0.227196645069563,0.43225514582462204,0.538831353862989,0.9319329680201718,0.046817420916193626,0.29686659169871565
28,0.5872842256240758,0.27407626087894693,0.08090531222024712,0.6607572661240023,0.22669146097021964,0.46093671006532827,0.5741143508253197,0.917344804833119,0.07070816608355766,0.3143504004084501
29,0.5462554893466792,0.2964651754871505,0.10693650853302722,0.6089190136245359,0.22468904464655515,0.4922923665418714,0.6160971109148003,0.90069756414516,0.055783554641662604,0.34369095248327064
30,0.5076876950563421,0.32918855369623945,0.13509603108674448,0.5584904898452117,0.20747584611044195,0.5158213936543062,0.6631748552179917,0.8822255284022744,0.007380469752379841,0.36120654368732713
31,0.4720768123157215,0.3702268274022476,0.16284098641032307,0.5104164357582783,0.17183352140897773,0.5010415490507036,0.7097363246648968,0.8622973698091235,0.010650467413482493,0.35920078657732385
32,0.4411050782598651,0.4174972435418992,0.1900180253547988,0.4630065965504823,0.12747338229028182,0.48551245469687987,0.7513350442659457,0.841318335748074,0.008140117592990513,0.33113334120427895
33,0.4166571049995524,0.4642500437824289,0.21708792960052878,0.4145401632579574,0.08195123038731048,0.47938471956976364,0.7886872181319705,0.8195209405727159,0.10024112832144386,0.3127173165395067
34,0.39964727216102497,0.5083677135688394,0.24562889964465803,0.36460627728832906,0.04742071683139969,0.5119502337455079,0.8243231436923714,0.7970244401652655,0.0896173220208879,0.322839274562846
35,0.39035512071992456,0.5454289242754656,0.27506650608749633,0.31163069795313647,0.08764794205606198,0.536264036845996,0.8594590218602992,0.7739433620355066,0.10451599736550371,0.32273184386302317
36,0.3861576915143535,0.5729433023931428,0.30368865118748684,0.25485167181395285,0.11914291205687881,0.5676355844792406,0.8930211865780039,0.7503116194897946,0.04360061164580233,0.3214998829235461
37,0.38327576223824406,0.5877893954494059,0.3312251125992871,0.1942213715118989,0.14640415350518765,0.5866071948644512,0.923688063077244,0.7261854880439695,0.2801929068216494,0.31178319118074577
38,0.3741931112471909,0.6039744488138669,0.35915082735403236,0.13292399729757018,0.18339150596008227,0.6702919518651216,0.9491448567037599,0.7015754808009216,0.27198260929287743,0.3320574770185474
39,0.3525761328586778,0.6514074728378949,0.3788534250942359,0.08963041654916493,0.22359343444056728,0.7166445249316155,0.9614492775502346,0.6765057639083557,0.14473609818999728,0.336926893652195
40,0.31163358824077153,0.7455512222872903,0.3845887656686763,0.09872744782962366,0.2731050042458042,0.7228434583625485,0.9515856457976642,0.6510799532254975,0.17757138025592564,0.366417499178317
41,0.25414042039928914,0.8335951620652161,0.3733002668584404,0.10907325829496886,0.3273054735187634,0.7165855909430032,0.9178495946214072,0.62549074164844,0.05871326721262495,0.39917578424597155
42,0.19435565540427957,0.8982421046458747,0.35218806235838923,0.1201047066939528,0.3790606949798024,0.6958746888437007,0.867702456109207,0.5999529045801849,0.20139813318502023,0.39230885306522645
43,0.1390924833179624,0.9479057625977223,0.3258029734391341,0.13333650570021227,0.43037713875836503,0.6720359438471715,0.8111628427233478,0.574566077577686,0.16788093401904375,0.3585501166145255
44,0.08931938160696885,0.9836794684394413,0.2944023436477042,0.14496690710277965,0.4826274024351827,0.6542869007273341,0.7530500043450336,0.5493696761445495,0.24827471341476454,0.3214570740066205
45,0.047382157506210075,0.9999999936885332,0.25618529638040755,0.16054476149257108,0.5311166479828752,0.6825308563435655,0.691165673772153,0.5244088967321091,0.3686352245795767,0.30728090201137925
46,0.01652917018420173,0.9968015266892825,0.21118912964078657,0.20818934367737507,0.5735638275970837,0.7220231556431833,0.6216572225945485,0.4997054198121152,0.07589785966742428,0.30383738668703764
47,0.0014800093155912229,0.9836698697538997,0.16491399159318093,0.25848976110066707,0.6071334872049099,0.730330844223726,0.5483937902356457,0.47527528069008923,0.38621472314820526,0.31046382671123945
48,0.0,0.9692505159354949,0.11597030578923335,0.31223114060896245,0.6370028920030628,0.7817348812630492,0.4755649685307825,0.451122228737834,0.49759383262057916,0.3623346345245999
49,0.01285530592546088,0.9492938276529993,0.06098602316857023,0.3669084133933446,0.6724082568284001,0.8450227408027042,0.4011574662013215,0.427274446252578,0.8514677199426733,0.42244396997752287
50,0.04763875776828656,0.9137521215971548,0.006504378817991951,0.4173945584750201,0.7117763460299419,0.935037371893046,0.3230280547160995,0.4037882723914607,0.13440870265531468,0.5611005727880808
51,0.10820966539227067,0.8617989997233109,0.07957294787730924,0.457178364768974,0.7503178368097325,0.95869478341194,0.247584964266523,0.38075331123683726,0.36919866211429736,0.736312665239179
52,0.1913968791316199,0.7905381990798569,0.15220982991757961,0.4820243870053447,0.7929791048015438,0.9424979897238912,0.18244312718363256,0.3582625312139133,0.4844829876361824,0.8303460580493602
53,0.28970980533883656,0.7092108774601102,0.21600567475620633,0.4992073079973266,0.84115565214987,0.9009356652269286,0.12835882525710104,0.3363783413206694,0.7023643686009426,0.819914806584596
54,0.39013981062611364,0.6287720040076412,0.26564575194876733,0.5158685429592925,0.8905577031499213,0.8110860635826961,0.08604939804218929,0.31512002516441856,0.3982486222697865,0.7484054080149098
55,0.4874187423653188,0.5484344178117654,0.30335959574467913,0.5315461466664485,0.9375082934760163,0.7466332347608912,0.05458656472107615,0.29448259226511897,0.2129107248321294,0.6936764353803457
56,0.5868727104337207,0.46302413163196443,0.33310625637123825,0.5472188865498885,0.9734558659341335,0.7707714399501567,0.03059775571078858,0.27445301416466983,0.19220947852467704,0.7080487378774964
57,0.6756921387106294,0.38043779048152815,0.35427077368506654,0.5642601147027407,0.9948238476893521,0.7954069272408176,0.013347868514798083,0.25501378937256514,0.029356064631771678,0.763443375439
58,0.736175377179209,0.30676698811134984,0.3666057268554148,0.5822880316716448,0.9999999773663694,0.7911188930620193,0.003684232859773358,0.23614240397651523,0.09000945338712563,0.8206224496286154
59,0.7637253088289878,0.22516461760653086,0.3722876162900954,0.6000272955644115,0.9941960145197466,0.8181639073734449,0.0,0.2178277663470446,0.19324613943613217,0.8791778057134992
60,0.7371100162282797,0.12184102809037266,0.3688560943191024,0.6140898106919783,0.9783319592820426,0.8835696212488597,0.0015425083790586926,0.20008421022270337,0.0871092640491165,0.9633910826053393
61,0.6554241497331282,0.008172527059256559,0.3541450982707799,0.6205426674197806,0.9532501534489276,0.9370923982477238,0.009492520383814136,0.1829520485370255,0.2346243203317391,0.9999999973868777
62,0.5415237349872548,0.0,0.32637307138960975,0.6089578082903284,0.9174499805271894,0.934791654899178,0.026948510412281624,0.16650661241869527,0.09965516198905906,0.9079142416162249
63,0.42477079701761083,0.04031952869479891,0.2883177192343982,0.5845909071062455,0.8741817884179987,0.8780326121547001,0.056969677164857735,0.15078483466709008,0.29920898771617216,0.7309399755691544
64,0.3279914739561488,0.061007504895594956,0.24505514109137053,0.5570545621087891,0.8276148848601701,0.746981098444203,0.09681188150562313,0.1357856299637404,0.17853207243583166,0.5580981096589266
65,0.2495981206118047,0.07534144648068267,0.19807047468661845,0.5291882891161214,0.7791979076503024,0.6754328207004919,0.14227372724831525,0.12149833356379267,0.05666350149576253,0.46236102106280136
66,0.1855369183722649,0.09654184528750251,0.14800817627622112,0.5001407835997652,0.733367913569919,0.6569350622043619,0.19210655484005393,0.10792098754252899,0.030372924052829663,0.44167365941324727
67,0.13365324555394775,0.13896166439715796,0.09532159012529844,0.47150873375160357,0.6928999431563132,0.6575340578149105,0.24681076554803247,0.09504494891643883,0.016855708213546133,0.4452219057202496
68,0.09416693127556984,0.19642091402034254,0.04216699616898745,0.4440498469168234,0.6582672584271616,0.6461442670227645,0.30596011935470485,0.08287304162950627,0.022911373801769358,0.4280707102050944
69,0.06482933080431914,0.2584322167314696,0.011079001930263078,0.41778185834874454,0.6297809309308383,0.6391230735036757,0.3668849862767419,0.0714141433152874,0.0648198182727669,0.4322547168142159
70,0.04841400169735352,0.32032695967511626,0.06723750873948807,0.39260257953445793,0.5962726439469885,0.651178939565381,0.43050531150289567,0.060701617597408386,0.47553560847084975,0.41789416325451034
71,0.04736094919202231,0.3836187237433009,0.13007755063958448,0.3678719800414173,0.5577164614984864,0.7252545080141894,0.5050376124079022,0.05077502606568468,0.37320343983856163,0.40438568361952465
72,0.07306214415409631,0.43191708036775006,0.19072068678026335,0.33879046479066827,0.5106024831397015,0.7848200282510279,0.593277089762516,0.041699849026157323,0.01429665067272814,0.3441947975221537
73,0.11957711611280013,0.4691541036422181,0.23832960481518442,0.3005951119302287,0.45674435993149815,0.8086509428775893,0.6851173968192366,0.03353201892680922,0.3803590018962716,0.29500689763324844
74,0.17045550843088275,0.5108541840615256,0.27060566803319225,0.2547100517715442,0.4043237076195426,0.7736862277732246,0.7671337733419201,0.02627159701661354,0.6775210612877458,0.31077746973714704
75,0.21954278562003893,0.5342751963620543,0.29049005194290506,0.2115358861594303,0.35140303990042016,0.6794250551924561,0.8315693713256609,0.019911902024599026,0.5588584872539283,0.3253813455749772
76,0.263789300629819,0.5306470230080353,0.30122617740978713,0.16947912601657525,0.2989082112634081,0.6003435686270909,0.8783991397628628,0.01444844017991894,0.2571068621998012,0.3577896984590671
77,0.30170825660340184,0.5035897297846551,0.3050805069289369,0.12862880458663628,0.25123155148585263,0.5561828087156447,0.9111716775190427,0.009836777752497113,0.11846271657993941,0.3944654040002159
78,0.3329681707324059,0.463981624788577,0.30615285226261707,0.08885110572916205,0.21091450669504178,0.5271672082769607,0.9343761096096272,0.006045079733483851,0.01555135819228277,0.41658482127360413
79,0.3587595883872861,0.41804438574809116,0.30668089157710554,0.049089909734630656,0.17743030617710118,0.5216490281009404,0.9518912362468304,0.003139910111103997,0.23820579284111928,0.45828511434200014
80,0.3775294529029008,0.36754278539653756,0.3062013215754982,0.005157564303115835,0.15128362828541422,0.486282930520039,0.9621538689882472,0.001134913493622297,0.047770193587919646,0.4940119397756945
81,0.3925737248276746,0.3151904206978177,0.3022861866968702,0.0,0.12523539047483698,0.4915491668070149,0.9622587215155334,6.410529404746652e-05,0.2251620852374421,0.5445988814590864
82,0.40532218506414297,0.2614659377408785,0.2915463101685569,0.04153369540781411,0.09140756287664764,0.5492528731704698,0.9519268336627943,0.0,0.01677548008827354,0.5789337141160106
83,0.41549550770542826,0.21617734116059767,0.271545869831167,0.08541071937985513,0.05035713422243796,0.5847168429781994,0.9264325848179931,0.0010318296898002208,0.012882696136203815,0.6477415147659941
84,0.4260169102374778,0.18209394590220437,0.23797992480718339,0.13578345012952767,0.0,0.6196358918466307,0.8793299753539338,0.0032253629618369875,0.0564686796584821,0.6444169342506294
85,0.4414794308579455,0.14737003559951378,0.1976919746945745,0.19135466086678013,0.014392086129019087,0.6218671419715712,0.8124836833497816,0.00657687683195223,0.23484630931321224,0.6133587995516045
86,0.4639603467959126,0.11079526397415655,0.16119972106906352,0.23952423264641778,0.04577049950007651,0.5621119378432157,0.7372550098143839,0.011049299999062427,0.29553863643303974,0.5587996767463187
87,0.4936497437124756,0.08743888154851767,0.13072928584324603,0.28273837995664236,0.09233221934824916,0.4953874297107051,0.6644956018297031,0.016613150364339958,0.17685301549530605,0.5014074510735071
88,0.5257856597125605,0.08801045511104232,0.10557702509220147,0.32487113172012533,0.13304384938202302,0.4561441770305984,0.5980484730003139,0.0232838923990202,0.0688527556871854,0.4730340740606906
89,0.5592742805802029,0.09878546562474244,0.0834290046938897,0.36389619757349295,0.16761013277245884,0.4323200639208139,0.5369780250278543,0.031063001695849225,0.24796827169688762,0.44786223878428505
90,0.5908936965290119,0.11297024010560669,0.06738422865825176,0.40274062776352343,0.19738542728142178,0.3805461538723222,0.4834306932026342,0.039957278268010384,0.04546102400347505,0.41537263098867383
91,0.6201611537707936,0.12376421916674527,0.05448375725263411,0.44242533768770886,0.2229232210799375,0.36974431306545386,0.43799697111925506,0.05001414529257513,0.03325657859417095,0.4190172736390993
92,0.6488531384943496,0.12808096297217716,0.043042329232717634,0.4823780942200861,0.2453114931139195,0.3622231773232215,0.3972203416583337,0.061254723735775674,0.0,0.41260331210794254
93,0.6794656869853851,0.12549106708512117,0.032270289713139985,0.5266152161697707,0.266871658522249,0.36562847492002226,0.3597698514419085,0.07369136626372322,0.007043942771207757,0.41743511628616636
94,0.7125593909205425,0.12080890664950812,0.02239424743939942,0.5745489565566578,0.288113211351104,0.36925487084902653,0.32539743182888026,0.08731197318536839,0.0023655436149181844,0.4228709460286986
95,0.7453662363263763,0.11838349598411332,0.013438204978851544,0.6254729384995804,0.30711240188180106,0.37131807783006476,0.29501646980892615,0.10202710671316224,0.01685633754676913,0.43200630867645307
96,0.7777796501478826,0.12322298171564126,0.005240863388546583,0.6793040106484778,0.323595521858388,0.3684969363072486,0.26915502819948334,0.11765270925201149,0.13789144114081134,0.4350007300786113
97,0.8086227809051054,0.13334030808145494,0.0008502529163262837,0.7336973111454627,0.33799647150836537,0.334252667151732,0.248730916456699,0.1339149032637168,0.15534911774717186,0.40087956416227855
98,0.8342595431740404,0.1374617557457186,0.0055410645126528725,0.7889533126622006,0.34800794354731396,0.28683048605818,0.23419751466438965,0.1504924677351803,0.14855810095407765,0.35016355160736423
99,0.8545960843631201,0.13294526365775478,0.00937152352082576,0.8383718613334206,0.35457366954801983,0.23802716755173878,0.224818588333797,0.16712198404811618,0.16779053952312792,0.29877094268658266
100,0.8691984001409788,0.12376565914009409,0.012623153010776943,0.8817004093654314,0.35830957631947663,0.1857911766306495,0.21926817926743214,0.1835795865485907,0.09570177322439857,0.2391260059421657
