Frame,Center of Mass distance,Symmetry,Grounding,Arm fold,Leg fold,Kinetic Energy,Potential energy,Bone length coherence,Torque,Center velocity
1,0.9999999966924212,0.3132955122039973,0.003343937050521424,0.9750566666625008,0.11291525797571597,0.037168819148562966,0.5814291850625665,0.9749141010970974,0.0337026180595827,0.08973873596821784
2,0.9986859547052523,0.3128757526694296,0.0,0.9904213690643914,0.1202338525153181,0.037168819148562966,0.5814291850625665,0.9863118877019912,0.0337026180595827,0.08973873596821784
3,0.9910033134698242,0.31348411613412025,0.0026776379202424786,0.999560156920604,0.12881517213520705,0.0012857321575804486,0.5793295302810767,0.9943671722552889,0.0,0.03915191449636744
4,0.9796726075800718,0.3142631121969368,0.008077422866106984,0.9999999403552577,0.13460896179734327,0.0,0.5809510251859245,0.9990613431477241,0.04270819812877297,0.0
5,0.9661511114233137,0.3155470908663469,0.01784787132549788,0.9926899381617404,0.13927725543091837,0.029747457554482534,0.5852898089418807,0.9999995477216107,0.051534322159339896,0.022366955158023248
6,0.9469662135715081,0.31774724006999094,0.03390299924370394,0.976075394207844,0.14145590354948115,0.07174701977064474,0.5925403637201201,0.9975997262309961,0.0811274220284214,0.05973156754915202
7,0.9217589000847836,0.32287293784481697,0.06075253387300036,0.9453519037935475,0.14496695393163747,0.1386097450985507,0.6039931473654256,0.9919209378658801,0.11956833381448861,0.11573979226249108
8,0.8905997931555153,0.3332677327291139,0.10464208867894198,0.8981049673020784,0.15408429238226332,0.232291578916048,0.6225922828466446,0.9828867204351149,0.11157480451879567,0.18501521569242818
9,0.8557321606191608,0.3469450863185798,0.16490004583312237,0.8369281247671108,0.16420514633614886,0.31644131870290315,0.6501626153312389,0.9704730778908662,0.09079928280937555,0.24114428884769729
10,0.8204938924864804,0.36092820671929504,0.23744310703836483,0.764544749620512,0.16957058429275088,0.3816461380124208,0.6862458599932142,0.954510010172567,0.0803759699301468,0.2833574924886829
11,0.7853852449681554,0.3756773068535323,0.32026111543762253,0.6888731141358307,0.16867841071742753,0.43416434283731425,0.7293841736200073,0.9352219174171089,0.0644456084957055,0.32163739441347106
12,0.7566736286523587,0.3905140949312958,0.405588725110156,0.6147482597768762,0.15839549629362665,0.46329213803017144,0.7762138986249545,0.9132423785342041,0.06131178177867645,0.3598872979805526
13,0.7327463138338146,0.4066879192302056,0.48452510251622066,0.5471393831850045,0.13351399091207863,0.4815831285546382,0.8209951441191359,0.8891539454938081,0.0015379225218000046,0.40111837378557674
14,0.7072065900899936,0.42557295451120863,0.5507224358723039,0.48381114043694623,0.08951369541618943,0.4698895694394003,0.8583091697343246,0.8638403447407593,0.019584383248429153,0.39704826408823657
15,0.6859973919293029,0.4452751972576129,0.611896849813847,0.41380630980840905,0.04218029959518533,0.4776481292442154,0.8881612043313538,0.8377248479537575,0.05721837282618038,0.378700127027203
16,0.6659602155065695,0.4641626003238894,0.670448025852833,0.3356318119728596,0.0,0.4575540383132272,0.9144716405313076,0.811037036425444,0.030078088177401693,0.3384594719670003
17,0.6499504770717922,0.48126288646629567,0.7247434774665447,0.256391028971029,0.05320221902064831,0.46647804679384325,0.9380596369160206,0.7840651655475293,0.04146111417612427,0.33122306942020796
18,0.6373265468591517,0.4937684875726902,0.7736290277217268,0.17698900485285113,0.10028584558687602,0.47826490446425846,0.9578731703181901,0.7569476315561502,0.052447993238032106,0.32652049132904554
19,0.6290619465837326,0.5026640552578622,0.8204871547906354,0.09351398539560478,0.13699564709097406,0.49852436588006055,0.9745401566460117,0.7297067601358087,0.01758396983443497,0.3272939744538069
20,0.6213539202106148,0.5180395628360595,0.8671480856833714,0.0035395402283142957,0.16820187361864572,0.5133324836426684,0.9890096895901576,0.7023284278760269,0.10200986001390204,0.3209609785490557
21,0.6077486713174961,0.5553468474210677,0.9124635803468253,0.0,0.2008372706735663,0.5568350768046576,0.9995926676419855,0.6748117323905283,0.1827186373190708,0.3243397017490038
22,0.5755711328377767,0.6109550184793289,0.9419425113712471,0.006345450906230535,0.23918740443393663,0.6099021094766022,0.9999999872219877,0.6470505303779986,0.2621211203200757,0.3613161293427088
23,0.5086949916828775,0.6634432705829005,0.9383127642792668,0.020302078536823795,0.2935625201267455,0.6660592626227049,0.9819355625508518,0.619250065884022,0.1312875149107308,0.4032081693293608
24,0.4213987336610266,0.6868068733597174,0.892142187805522,0.07008503865845987,0.3462489212135795,0.6418976879384226,0.9417326530217205,0.5916762726150152,0.11570537632659858,0.44646312849060993
25,0.33080450027180713,0.6866327227246707,0.8207261151885042,0.1345120811657248,0.39654584718749886,0.6369661728669258,0.8854926252297302,0.5645443985944353,0.0206083124866072,0.4944433110511141
26,0.2421882035377352,0.6719600471335243,0.7294430099263237,0.19084946360349364,0.45150281620020943,0.6318777749381392,0.8213396965505433,0.5380421120235681,0.14908664474677946,0.4978339714728754
27,0.16229774238776054,0.6520668132331078,0.6309147025374302,0.25295456496269625,0.5103801036596884,0.6098205983491116,0.754536719734051,0.5121736790530441,0.18853926724986397,0.44709435568736394
28,0.09576599764071077,0.6262910460556457,0.5307789352777527,0.32101418117102526,0.5700417256548715,0.5795885695430718,0.6898367147619072,0.4869005636448421,0.06557827889573555,0.38555981029780517
29,0.04397614787236154,0.5910145933581581,0.41672287532792357,0.3851823945459475,0.6269763040251913,0.5895051881783708,0.6250379942978492,0.4622663232075558,0.06745552741072237,0.377154868070823
30,0.01333095360367818,0.55204791284467,0.29784927235965286,0.4393385658056386,0.6762560027167903,0.5655365158474233,0.5592490804579678,0.43829618375827795,0.02697903369912096,0.3671514394694781
31,0.0,0.5147561575904711,0.17731534912605468,0.4899126221615449,0.717828978024944,0.5690139409722204,0.49517561571458046,0.4149324794322335,0.014083788575291115,0.3691694207449559
32,0.002707543412264471,0.4817273585886903,0.06142654667073819,0.5428373052960722,0.7495813813588416,0.5713513329954899,0.4343650942270143,0.39213881923140453,0.15694329654950534,0.39103308991436175
33,0.02242854484373582,0.44478126857012007,0.05860496176258942,0.5964980827642637,0.7762419701660698,0.6041580109500813,0.3752505769573303,0.3698725962142277,0.24603783050871275,0.43429930629880703
34,0.062420908177264436,0.4000666692089168,0.19247578492949713,0.6501319455567247,0.8061311321012783,0.6655188749369955,0.31413755766495843,0.3481021693002116,0.2794702692473242,0.5148020284786265
35,0.12901906221975365,0.3440440038828725,0.3374576484152928,0.6998914677673824,0.8273231311494182,0.7384864688593336,0.2510040217096048,0.32685775357930963,0.27190904205061334,0.6544421959099667
36,0.23094447929002104,0.28084576920689025,0.4959519288725907,0.7445454492122645,0.8504239664183236,0.8370194655885069,0.18750253155448995,0.3061677271902375,0.1451574601545684,0.825787428878013
37,0.3596427638104914,0.20417840623797767,0.6481360561063597,0.7561785502246255,0.8794449022131964,0.9168960642529949,0.127995279018163,0.286140687031302,0.014042418165140975,0.9754535532581529
38,0.5004328748394334,0.12138406452528588,0.7841678258877406,0.691821955168696,0.9134313924912806,0.9472004157702184,0.07657594744932289,0.26685179598991937,0.06299839238698507,0.9999999966440716
39,0.6359542178595103,0.05037502756514675,0.8935412853444165,0.6219107907617523,0.9495097813636814,0.9348310543853224,0.03629221122465594,0.2483149914599594,0.18940130833377317,0.9309063325143948
40,0.7373506425906553,0.008342836139308191,0.9644002787637466,0.6094617310137348,0.9781974925139609,0.8172403561796129,0.01126784571508973,0.2304880100058084,0.19672707368869072,0.8315394645060932
41,0.7901575143968191,0.0,0.9975021763176244,0.6160448022008573,0.997288168406944,0.6955087618238083,0.0010284866112967,0.2133217997795198,0.023469169908685725,0.7422515166162197
42,0.7999088502175213,0.031513625628062945,0.9999999738134775,0.6302639805066356,0.9999999719591849,0.6744211772049206,0.0,0.19675796436081053,0.044450255608068125,0.7432779586719644
43,0.7603617862237496,0.10137183819917805,0.9686342735078567,0.6505107197104641,0.9895902611463337,0.6920336335735449,0.006630151474021018,0.18077989447698076,0.009805873532334046,0.7790931525450904
44,0.6856383781882794,0.1765998321963635,0.9103410932074051,0.6749172985230366,0.9735351078585798,0.6922267187971962,0.02175958800167188,0.16541557203381738,0.19573011660487713,0.8106906944673802
45,0.5876051115779384,0.2545491303470196,0.8268723685302758,0.7064248496243669,0.951069728540547,0.7589718927793511,0.04383317836752714,0.15069228054021383,0.34211871113275527,0.8940103843445936
46,0.46622086892687375,0.33892447530489894,0.7082580598715733,0.7206511709799872,0.9175485449385975,0.8652582350360984,0.07469567149022366,0.13662415847048176,0.26896229696574747,0.9547968900841117
47,0.33590229674986255,0.4270579239463245,0.555047019553812,0.7268442990877763,0.8704819668610273,0.9414271306111914,0.11898886514750776,0.12323282823514518,0.30314116254088913,0.9492634066761346
48,0.21533242287816315,0.514181665052829,0.3806355240876374,0.7300266199741621,0.8085234637475395,0.9999999991711864,0.1806186117563319,0.11058007054804726,0.48995752798902675,0.7928323800779109
49,0.12544441858458902,0.589114979997682,0.22582651046592667,0.7250743653159298,0.7499068056077359,0.9002786164366936,0.2531775917166441,0.09869020006113127,0.7145372466389569,0.5439699231220503
50,0.06792329489988062,0.6520165994552856,0.09970901171785178,0.7119669277265653,0.6934410245050706,0.7752356146003739,0.32353976630861125,0.08757121623586742,0.5102048082346827,0.3444150349232215
51,0.03487821513986883,0.7065177559324447,0.0029030138654392817,0.6939096695885867,0.6379918257330964,0.6986778288478495,0.3864772693093377,0.07720503266000188,0.37909909232957645,0.24584508888056755
52,0.019841948342832746,0.7541943480229242,0.089942793334164,0.6728731507782346,0.5891366448109968,0.639098223187369,0.44255023967087753,0.06756439968229248,0.19449015680753928,0.18854452834729493
53,0.0190644305767276,0.7975977118644981,0.1740793101094674,0.6443799345997737,0.5469360374454195,0.6010800888821425,0.4950429090969163,0.058606188866223846,0.3060423476279408,0.2012136167244454
54,0.02660595842901067,0.8387929915837865,0.2578922105417131,0.6268897267525261,0.5132848967758742,0.5470572390370054,0.5465393648550549,0.050290022300660084,0.25049608636940457,0.21612415032256027
55,0.035961005382188695,0.8750660002954351,0.3467293522871559,0.6108637142993174,0.4858992665950593,0.5051591348916131,0.5980817202566966,0.042576628717240335,0.028146200474800865,0.24394121159602325
56,0.0511716497474116,0.9081731981266945,0.4386457558684296,0.5939914032511173,0.45924086977175754,0.5082934567517479,0.6513597213481872,0.03544723531534887,0.19620371787157656,0.2617922526960567
57,0.08206277662941953,0.9381119965003211,0.5333790166261836,0.5726168431730246,0.4272308852796495,0.542785066725125,0.7076880367509217,0.02890727835144962,0.44171526130141897,0.2870290646390958
58,0.12793892198927512,0.965631998441214,0.6278651600937656,0.5420868564494048,0.3962178593057508,0.6120758820557948,0.766542797895234,0.022977640470964355,0.40269641134665196,0.32169193232475773
59,0.19148705936190746,0.9881530426984996,0.7003278032053972,0.5024853408681503,0.35896746737901186,0.6840534524640295,0.823709515335274,0.017708376363625173,0.06403910870336728,0.3365596659050157
60,0.26155438289156535,0.9999999952369341,0.7344179832989759,0.4532770694112243,0.314661903315321,0.7085050802431763,0.8698031469517902,0.013144709069898964,0.17570768487727956,0.3354834959499037
61,0.3332053315733832,0.9987749468021258,0.7472623748960704,0.39482591095677816,0.26788711866750997,0.704163237071695,0.9010083294688076,0.009264242797337287,0.3853102464216789,0.3494109622203108
62,0.4084355723673971,0.9831490783378861,0.7469053222928569,0.33213709721219653,0.21764515702432577,0.6551466318504922,0.9218691383599495,0.00602761155871835,0.999999999924036,0.34978126820815725
63,0.4769929812193899,0.9566817875671968,0.7344174778671362,0.26777271745236236,0.1655051703955421,0.5172049910383827,0.9332279095596269,0.003414352776005177,0.5857926917943767,0.3271100665682346
64,0.5347941899031775,0.926604184304213,0.7104007837242619,0.19508953821702021,0.11849249439016023,0.44709799793916316,0.9341557785893996,0.0014061161304784646,0.029452854850439338,0.35394018686301637
65,0.5872874927121707,0.8956449663878258,0.6738949854640052,0.1207126700120499,0.07738560747085484,0.4497766501537384,0.9261046461290675,0.0,0.029452854850439338,0.3954859840020445
