Frame,Center of Mass distance,Symmetry,Grounding,Arm fold,Leg fold,Kinetic Energy,Potential energy,Bone length coherence,Torque,Center velocity
1,0.8837756714822176,0.3501446781985866,0.056373386385838824,0.895928738368877,0.7643673321742271,0.31027433580501695,0.2866818640399064,0.9999995327175905,0.02273471963366036,0.154115028100083
2,0.9004672757024256,0.35497843854772726,0.04127838319496017,0.8800190589156229,0.7272433107067205,0.31027433580501695,0.2866818640399064,0.9945068751733778,0.02273471963366036,0.154115028100083
3,0.9165421192804192,0.3605562949536969,0.028751887986030865,0.8634680336250754,0.694410274238503,0.29739050403276873,0.2925507021124943,0.9888258634011178,0.1259331056686799,0.16245309983525907
4,0.9345083061659499,0.36635139684906387,0.018406252287035057,0.8508010707460192,0.6657049961710831,0.32003592262446295,0.30091064777454657,0.9825775422960908,0.1556893883900644,0.16633889777063446
5,0.9534506478573508,0.37004820468492033,0.011239546379198289,0.8400172198594957,0.6438513307261696,0.34432953150183876,0.31388508246898283,0.9755073940546491,0.15484092466053714,0.18217552537672047
6,0.9723879172280856,0.371672623138453,0.00655289513473658,0.8303797775331969,0.62608389644239,0.3711983552674664,0.33074030424930867,0.9676358006002013,0.18484987385617546,0.18475971674346953
7,0.9895961414401303,0.3731196686632653,0.0036233740315099855,0.8171518820975754,0.6089325133460086,0.413912805611654,0.35068168902520297,0.9588847494488051,0.06168054712279032,0.19966381569009437
8,0.9999999982906554,0.37605765943176145,0.0012139840288576747,0.8005225715710623,0.5865983022694761,0.43705686668629345,0.3724766575591809,0.9492347805847402,0.06433863531449203,0.19831690016253056
9,0.997184149304877,0.3823335663055435,0.0,0.779894286327173,0.5590534477649116,0.47070995814060973,0.3961458944851698,0.9387089653205203,0.14565772257343854,0.1819041167367924
10,0.9795103524804283,0.3937965410069879,0.00019416449342663764,0.7520046567161943,0.5284773598130712,0.4625760655026274,0.4216255691922489,0.9273541611568459,0.3055485863389822,0.18571623267164594
11,0.949942272326945,0.41381585144659866,0.0007227884191724874,0.7095872384781804,0.49195302456646567,0.44150480183485213,0.4471208881110086,0.9153395641817968,0.24421977823399177,0.2317985772297614
12,0.9149550720736592,0.4378199523826921,0.0023511787634552983,0.6615140903487235,0.45079769393788327,0.43469219329318237,0.47228067838454757,0.9028323021912168,0.02561860452757327,0.26724116942364023
13,0.8746192389303902,0.4605983650781845,0.0064480005776891116,0.6236654420302792,0.4042821360946073,0.4494841260408021,0.4971620354253304,0.8899248050797282,0.029123600219370112,0.21612111867246594
14,0.8302100564324737,0.4834912241929333,0.012675201311213078,0.5931855865786835,0.35271625609161034,0.44953551648846063,0.5210047076329102,0.8768027985593216,0.14673277816338437,0.16299738295295207
15,0.7872142250136509,0.5070023423256991,0.020758560705120558,0.5603938924887181,0.3041237556150829,0.4210922549965752,0.5440048082081237,0.8636195617064439,0.16839911704047295,0.16553635325844782
16,0.7484499207392123,0.5309799563360045,0.029540604682657463,0.5275832378725409,0.2608034402196137,0.38220667668554426,0.5666280763324932,0.8504551518302988,0.027694205343983168,0.18427392199860937
17,0.713152833096995,0.554237078767613,0.03945287492285621,0.5009782348305993,0.22245500779290328,0.3617329042299725,0.5885486680155224,0.8372797063560828,0.09608853250572473,0.17041653327715045
18,0.680132023493862,0.5768441012894943,0.05174271429190733,0.4776154983583769,0.1892284273113915,0.36860279317133054,0.6110573375130383,0.8240340959858555,0.05957437082004921,0.15994413686658188
19,0.6503319799038745,0.5985269982918018,0.06592027459950389,0.45734310726036287,0.16119618245387723,0.37150088343967447,0.6348865429300301,0.8106758673660286,0.13911053568111392,0.15051168123610245
20,0.6220151743356923,0.6210686201535975,0.08231574164478571,0.44241503053186343,0.14209817320683607,0.3948528060073383,0.6603588035155513,0.7971346970991955,0.17042832115222387,0.1586348651371308
21,0.5940523181483893,0.6454309454950696,0.10182132482086163,0.43151332008382315,0.14781019083445895,0.43422032149171563,0.6888188132376861,0.7833390691511755,0.1380617273580339,0.17766930401811312
22,0.5667590179167115,0.6723091861017029,0.12314248075241453,0.4246109542327262,0.15036571989891678,0.46286968187983063,0.7197430267829746,0.7691768075210285,0.30035726620538505,0.19633426994753506
23,0.5383047957255656,0.7034683300508866,0.14794146220203952,0.41768153163642846,0.15149522449757363,0.5263543221877776,0.7531031795389297,0.7545474710870027,0.27126207134844127,0.2447548321944286
24,0.509070153319668,0.7388984946989906,0.1742635991814809,0.4101288348656936,0.1534428114850313,0.5765575995562371,0.7887946937909872,0.7393800103891298,0.22382990056512,0.3138178971231978
25,0.47760106011030073,0.777408386433394,0.20019856404929282,0.3977463568541216,0.15630157207661208,0.6151054311157118,0.8244466618862871,0.7237307892915439,0.03509645638276735,0.4096838516912839
26,0.4453909668364443,0.8149478942611368,0.22298979535333968,0.37999569006049994,0.1469979601754842,0.6088012925465478,0.8562313778685254,0.7077569544183093,0.0357135248652109,0.45131971865314385
27,0.41299984162781417,0.8496241444853634,0.24525353919141918,0.36380566147420124,0.12547816369761663,0.617617043571558,0.8832743787498115,0.6915750939359029,0.16619316069463025,0.41964636626703805
28,0.3813508263157064,0.8811960551595613,0.2680987421272257,0.35791255882244194,0.1002035137885351,0.6067023763075926,0.9078616410081093,0.6753102206300748,0.39445430987276975,0.34836227178615353
29,0.35275993656396315,0.9084303641053936,0.2874858748906918,0.3541765118361584,0.0670596445840803,0.5522520668366796,0.9289635703835634,0.6591248017516844,0.2666188932369405,0.323638550864001
30,0.32732690012861737,0.9312281614971976,0.3026971508467003,0.34606204080111164,0.03160613852014806,0.5028237367798881,0.944550323641268,0.6431237771316426,0.1805815749040798,0.31023385444562895
31,0.304776104024214,0.9500312951724177,0.31673342946888994,0.33645070889749124,0.0,0.47758493137816144,0.9561328250285789,0.6273517845644444,0.192115418930906,0.3157506060312404
32,0.286540104810788,0.9637846244485598,0.3306522716455775,0.3278627338767955,0.011628825941624841,0.4525214006345125,0.9670756064342386,0.6118038534259054,0.043738928694011796,0.30018976617728116
33,0.2726571801147942,0.9732520806186629,0.34447137756768564,0.32068452901642985,0.037719353111738754,0.4496732892448658,0.9778726804088057,0.596463748197912,0.052345893569789664,0.3104970713165324
34,0.26171324452348804,0.9793376469414119,0.3580775401894271,0.31571553307130173,0.05839103762496438,0.45876258027182004,0.9875103036227376,0.5813023191507785,0.10534826982595397,0.3136874846151466
35,0.2510341288600484,0.984165685724697,0.3705801697430064,0.31282802250244995,0.07894959333385708,0.48288552973944804,0.9947645984518055,0.5662950145150774,0.391614238816517,0.3261414390706374
36,0.2369986577214332,0.9897740323964671,0.3834519751933384,0.31262488126896276,0.10669079547114342,0.5464595909151945,0.9983954306454693,0.5514230486893528,0.04682616998812456,0.3577586405555284
37,0.22487296046140154,0.9926200932034102,0.3973612612404208,0.3128112351170766,0.13286886409604856,0.5563817742857211,0.9999999868556005,0.5366923899185407,0.31137146699055684,0.3522840990454154
38,0.20996340983799416,0.9955108773362978,0.40738914754893135,0.3114427414891695,0.16331995858456896,0.5893389650060518,0.9973612510346326,0.5220976838132316,0.39269066630932953,0.38183724352636755
39,0.19074315274867967,0.9981278044074235,0.40766127012085135,0.29447000291945835,0.19643261717678176,0.5784070337844468,0.9850907043561441,0.5076986829584215,0.31961812396238054,0.42340894831328035
40,0.17140704423433004,0.9996283280507832,0.4066313959786968,0.2775016472329822,0.23415112795086496,0.5502194177883564,0.9673830253148218,0.49350946391664585,0.3868735174068971,0.4105538021135977
41,0.15337787421462287,0.9999999958602387,0.41014554057364466,0.274526787221896,0.27724950913275603,0.5519493169918019,0.9516850951192437,0.4795117126707155,0.11582530552114385,0.33696882775743003
42,0.13573305255584886,0.9992585740071472,0.41130824440692476,0.2797534756378051,0.31792943704198484,0.5571100287032701,0.9369793016158742,0.4657046713162418,0.25454375381898653,0.2966288570915832
43,0.11946899927659711,0.9978592792516345,0.40806671405586703,0.2800031778020759,0.35358867491913765,0.5003707850435136,0.9204010826573202,0.4521122692418849,0.08551793008932758,0.30300299256359275
44,0.10550079991293065,0.9959987056762044,0.40318611608272664,0.28541562733539927,0.3829848530547495,0.4873848364311259,0.9022724214126655,0.43870592301609346,0.10527686701560025,0.2917802792600461
45,0.09462019252853797,0.9933845214250032,0.39797285523643794,0.2997326250569518,0.4039879109165349,0.5017634725785388,0.8826194413530943,0.42544205423646864,0.4008456154037855,0.27207886513305657
46,0.08586518615345695,0.9908515277888896,0.3918810565401252,0.32290050033755047,0.4193477633774618,0.5537529770253654,0.859766323288138,0.41228465896813515,0.28658465139744493,0.2498273857762332
47,0.07797372821389248,0.9885676709868967,0.3838855243911415,0.3549632856731335,0.4325763269650963,0.5891631307660722,0.8327439364457481,0.3992256687133826,0.9999999998355762,0.23961240369467152
48,0.06680108696900977,0.9859415465778764,0.37115701835270953,0.39675914698353076,0.4554263164451794,0.712517311495642,0.7989135655201959,0.3862534562346823,0.8747097563871912,0.25796384041357273
49,0.05380668932896759,0.9811633624835916,0.35194760203904846,0.44275487316746226,0.48595210047543824,0.8164950453425203,0.7555347909707854,0.37337101383253,0.21240296448855997,0.30955958452290944
50,0.0399167271652329,0.9740100261310736,0.32477714206836655,0.48406219499719993,0.5222623127823196,0.8426440656731737,0.7058682715948169,0.36059912851986553,0.181366016144261,0.42579474617941204
51,0.02621079152797644,0.9642076654020466,0.29052812327674515,0.516565039330834,0.5654182203710797,0.8743583876975062,0.6534965710721412,0.3479671741105361,0.29888586559989744,0.5354788841983669
52,0.015917019095154524,0.9529274822505543,0.25504388158818875,0.5459933209986291,0.6151297105535053,0.8583635266476431,0.6010474968646461,0.33550805350531177,0.3770610505156451,0.522652604529221
53,0.013774573773803032,0.9390102035239152,0.22347414498375984,0.5850485588296748,0.668694438393979,0.8337586204719499,0.5517486816122482,0.32322672016292164,0.21599129552683696,0.4381610215274242
54,0.0031883971633523784,0.9211644561618596,0.19109914156185723,0.6296321932674405,0.7180868917320533,0.8059098898046191,0.5053637826119293,0.3111381961832557,0.3171330682017693,0.44480420543098065
55,0.0,0.9015055193761937,0.1587131818510714,0.6680155138593534,0.7607185194457712,0.7548966186074715,0.4609036177945757,0.2992667071773239,0.349262979654014,0.46244048973723056
56,0.0034096846061618413,0.8806938403472387,0.127477999951039,0.7004106670300587,0.795373742123803,0.7005628583309126,0.41839260053928534,0.28761718605435854,0.0653273344554868,0.4340416854273376
57,0.011308800784645185,0.858340343836639,0.09783133022581368,0.7294861617690094,0.8215369440329782,0.6857731232575739,0.3778458483418764,0.27618121302621057,0.3991135358610811,0.4518810084885647
58,0.02326930176290309,0.8323567808695573,0.06628199545621215,0.7600428953050772,0.8422655183889631,0.7333144125012113,0.3379844498084421,0.2649406089812081,0.35480809740983865,0.511674502246385
59,0.038422637568625184,0.8033579831514549,0.03446746405444892,0.7945431529349909,0.861266434171325,0.7838907220456542,0.29774344429438565,0.2538735030829711,0.6519368520431742,0.5736947544117664
60,0.05755197247153728,0.7704309104655119,0.0006832641174123696,0.8319825005759027,0.8830202618192338,0.8733739999785561,0.2560460296606026,0.2429663737196813,0.5184456046339386,0.6519159465819223
61,0.07998396852820386,0.7338384652902412,0.03769616670082039,0.868552708000721,0.9071399222805179,0.9453063967299956,0.21257157543476504,0.2322142932826069,0.3720588320457158,0.7551129714238337
62,0.10609416384989369,0.6934063590144175,0.07696298886711264,0.9004491918608599,0.9328304549805461,0.9999999985243204,0.1692381218521435,0.22162953748248093,0.49348856003988517,0.8660457831942456
63,0.13484066407908404,0.6515814833046526,0.11707607206468776,0.91732337191097,0.9602104175787214,0.9505659361595996,0.1288293170757508,0.2112509035419553,0.5576800231992961,0.9083108125150386
64,0.16487246339223663,0.6095039047064426,0.1534774367945527,0.9172999684941523,0.9801682183791638,0.883347900347166,0.09486439142317188,0.20110912219706237,0.35537254528609924,0.9137783662428994
65,0.1938282546035241,0.5673637905692906,0.18203080499219718,0.9258390959807287,0.9912092670223289,0.83295754111817,0.06731982968073667,0.19118180139075783,0.45692651689428104,0.821528074812231
66,0.21775640402118057,0.5285391366600181,0.20200015903000818,0.9435652160588087,0.997426471001062,0.7598880587059161,0.04534283283756323,0.18146132849825553,0.5518944029801415,0.7011045405514923
67,0.23780520864805935,0.4926446088677983,0.21716586771249988,0.9547104164496268,0.998432879962015,0.6743404234571575,0.030410692963386256,0.1719680524777493,0.19680794297015708,0.6711173676900056
68,0.25579140271460066,0.45676471449474226,0.2307636702094631,0.9588293072236946,0.999999967057454,0.6454353313472575,0.021260840467479763,0.1627121177588535,0.1996551998917831,0.6925237648757445
69,0.2696740652254272,0.4235146458082207,0.24103070644473112,0.9636534743462613,0.9994629829001511,0.6057692449556601,0.01499145522978368,0.1536885238063215,0.06117062265561877,0.6731456563853581
70,0.2805437398979096,0.39110697531761446,0.24858077358110778,0.968037065090537,0.9969789749643353,0.6181021910937005,0.01045358337335769,0.1448922940305382,0.15067375099952168,0.6879478016337603
71,0.2884180709878677,0.35874691346015025,0.2544149906062902,0.9736414113588813,0.9952713502446382,0.6543301993239229,0.006444680722926202,0.13632505326628183,0.09921485413405909,0.7489693765891762
72,0.29401229285417996,0.3251010531716575,0.25939976179075025,0.9793127121946709,0.995137494449728,0.6865987773781119,0.002425681134721311,0.12799597743666624,0.37360321468127317,0.7920997851564059
73,0.2943236817727218,0.28670815849775416,0.26095337716469186,0.9862909956804197,0.9948142764353919,0.7803484383147061,0.0,0.1199050320340821,0.21096580624351544,0.876417025607994
74,0.28692961210033924,0.24478745357028442,0.25686909043376416,0.9956066087514513,0.9914629444860922,0.8481699042083566,0.0014832453355337748,0.11205760668452278,0.024791172142408585,0.9447919176417162
75,0.2723502452276376,0.19945788072952672,0.24690719705161715,0.9999999262187929,0.9846625819514518,0.8832500986423717,0.009130467587081217,0.10446969550971258,0.10505468290062668,0.9999999939944563
76,0.2532131726631341,0.15297482926895534,0.23122691026962489,0.9937036056229903,0.972793805977828,0.8640380121367265,0.025151967787606387,0.0971623490887916,0.033954065557998216,0.9730902594874693
77,0.23123100935746219,0.1078151847927292,0.2120485322377008,0.9747241607408009,0.9629297670572828,0.8344226835790597,0.04780833755110226,0.09016082600353807,0.09664796781073805,0.8417046766133375
78,0.20401693162844395,0.06863414482905188,0.18719354441695213,0.9562657230666173,0.9548543657329869,0.8374643968441352,0.07430554677083911,0.0834647759186586,0.2578168852197666,0.7360677236834464
79,0.17494606325624218,0.045610424017289965,0.1569216584899506,0.9460575965844642,0.9422833648766776,0.8021610859214586,0.10346250841378206,0.07706477999102504,0.2327755543840752,0.6291309254337205
80,0.14997786589388484,0.024972697431925647,0.1266195304835719,0.9418414031754782,0.9209265645453042,0.7234015697635394,0.13297241742723104,0.07093708838934074,0.11298763756428316,0.5621576678872867
81,0.1314575334766916,0.008889560217581947,0.0998882543735473,0.9312592063553978,0.8956594350778382,0.6344262373657126,0.16068121066896704,0.06508271547859565,0.010918075102823107,0.4776052310812904
82,0.11725460344707762,0.0,0.9313041811241795,0.916543580430437,0.8693542400283608,0.5903860955846811,0.1865589562986335,0.0595000359554451,0.06512389225316492,0.4571955406382085
83,0.10621174816750578,0.002451776482040465,0.9518950357527541,0.898755806946693,0.8458133798069528,0.5418647768950805,0.2102729752370798,0.05418495038230881,0.016993305441280023,0.42165693386302083
84,0.09532575673662298,0.015064694528099913,0.9719162178005868,0.8804281656709049,0.8282650112986112,0.5494745066518401,0.23273539571924207,0.04912411660996522,0.07995073869662978,0.4662191005819492
85,0.08400321670436502,0.03264219614923533,0.9912371228600704,0.8633595682863965,0.8162066691791048,0.5866182906660816,0.2552997619893309,0.04430694633284361,0.12344528467599976,0.5505262391816299
86,0.07102695853261388,0.05308160911075537,0.9999999899294875,0.8466837819213535,0.8052294047370391,0.6515583210871477,0.27897926073142676,0.03972771369255813,0.1639108935822439,0.6307928674223882
87,0.057789584284809854,0.07724684220108921,0.9730468932030414,0.8292250946644109,0.7890201264481331,0.7221650071080621,0.3064156035826753,0.035387794770011784,0.07559140873106121,0.6797055494198818
88,0.0474537602666179,0.10264068458975609,0.0631095441663058,0.8046456474506954,0.7656059151591289,0.7395509233202425,0.3386379826240489,0.03129787376085648,0.0668620433152157,0.6741606567425357
89,0.04171789978283444,0.1307230081424175,0.0931472241068441,0.7696671161947308,0.7397070859460986,0.7301514213940505,0.3766866305341822,0.02747989117754605,0.038142174134925426,0.6013703184266586
90,0.04350102777836669,0.15727317969734336,0.11968550620896247,0.7207740814693442,0.7098266842799827,0.6907231466343288,0.41957289788429075,0.02395049532531827,0.2282845292616997,0.5498874262175953
91,0.05086110550731643,0.1803067623621512,0.14293773187420752,0.6701556324457185,0.6750187549526493,0.6311109911567052,0.4619735802440226,0.020696893297261015,0.1795401728950459,0.5230850174436782
92,0.06157276401515442,0.19829288083162788,0.1680071771408361,0.6336428418184405,0.6341401400545605,0.5678938116135367,0.5009797246597851,0.017695037026958797,0.1815913413859815,0.4568362907797785
93,0.07362029427614003,0.21443875800304513,0.1907883912664754,0.5993280720534699,0.5960293783377917,0.5154708952600657,0.5374122502982491,0.014926351307287847,0.04870346510615214,0.3974189175540316
94,0.08720354969361298,0.22742739597299236,0.20870423734103685,0.5557863848836391,0.5641051677557744,0.5036008148350368,0.571373880833069,0.012387194289798932,0.14723490767441916,0.3934288306774016
95,0.09951071809009956,0.23924739705393122,0.2242888301265841,0.5150159885592791,0.5370562958322603,0.46023366365348145,0.601738306572105,0.010072986321989217,0.07927186454536521,0.3558310611261723
96,0.11025361792164023,0.25016853162770597,0.2394526878087179,0.47860763832825465,0.5148271656255172,0.4288948368798507,0.6288591154969208,0.007978931748311465,0.05026519116109795,0.32934854013428905
97,0.11984650832099408,0.26068517980695394,0.25397200947283977,0.443102782245259,0.49650881899453914,0.4092662330806323,0.6541175705011404,0.006103945869017895,0.007801695940808009,0.3170028849618614
98,0.1282957206478691,0.2716990826487665,0.2675888595801037,0.4087563606264189,0.4831445470598781,0.4067964937354923,0.6784212324053513,0.004455297723200333,0.1688194657944604,0.32665356555094743
99,0.1374959806840609,0.2845735674897779,0.2833233425637519,0.37837134948770335,0.47101782528291847,0.4514208069426257,0.7045532366246161,0.0030475719147810693,0.10568680137236465,0.3654911068389706
100,0.14899929789176491,0.2957332890750318,0.30049474623701256,0.35244184978833826,0.4550534663454462,0.48396422252913285,0.7333468754841391,0.0018911098619369586,0.08133291102997578,0.38311376205786357
