Frame,Center of Mass distance,Symmetry,Grounding,Arm fold,Leg fold,Kinetic Energy,Potential energy,Bone length coherence,Torque,Center velocity
1,0.1014750340381771,0.9899357319682882,0.29805166719115894,0.2469108313837445,0.0062352329533283185,0.0015305501780134767,0.936939112788256,0.9954242884444623,0.013250760530731601,0.000346603992309838
2,0.1009967225855161,0.9901648554117117,0.29804080455999254,0.24953945576723635,0.007241249047861031,0.0015305501780134767,0.936939112788256,0.9962372788954128,0.013250760530731601,0.000346603992309838
3,0.10070365490803193,0.990196907060195,0.29802665210338725,0.25135966854785263,0.007499897792757331,0.0022906977425842007,0.9368280971075218,0.9975502792980574,0.012782081454454931,0.0020719270819843645
4,0.1003540922556783,0.9899488409526965,0.29779634175095887,0.25302123199473286,0.007689401063929078,0.003649776671202266,0.9366639078866023,0.99767972665645,0.012904199890144718,0.004097382085058559
5,0.09985391286916549,0.989642080541881,0.2975260907733898,0.2562907368283035,0.008126864896607092,0.005458403860865961,0.9363958210242933,0.9971201809818004,0.02738537588064768,0.006215147002151728
6,0.09939099335180428,0.9896344207320092,0.29724538909820003,0.2587620929243391,0.008760548771354074,0.002141180314679262,0.935915639421804,0.9966895704731692,0.014453191090942213,0.0
7,0.09883333404171853,0.9893623986879042,0.29703039364498485,0.2603412283089634,0.00908068618427129,0.0056305851509665565,0.9352037457887192,0.996686230099981,0.038251322921338905,0.004084365220213042
8,0.09867057810547246,0.9893401478099547,0.29697644163637105,0.26117689686016177,0.00907621542883735,0.0017270923312066675,0.9347629105559253,0.9968327182330003,0.014545804772382504,0.00262017109090309
9,0.09868477586766837,0.9890634859597639,0.2968725835965698,0.26210132000346825,0.008438177165108383,0.0014890685072308121,0.9346008918099405,0.9967156396552351,0.023992130047260946,0.0011943669589825384
10,0.09898111770064116,0.9891391934506674,0.2969019380938828,0.26258358854069125,0.0076717993046810234,0.0005583245658273755,0.9345087295937051,0.9965569117419771,0.01564682055306465,0.0014505535223856374
11,0.09930801549888672,0.9893853368941614,0.29682950550497295,0.2630633871982987,0.007054517798709706,0.00121384586624934,0.9344822641286514,0.9963653187597646,0.021119210733363966,0.001242778284600609
12,0.09939919042017555,0.9895593117656588,0.29683025601403523,0.26184133953564714,0.006933596531143984,0.0,0.9343098959842414,0.9962312426520356,0.012025883939702444,0.0003921819392621886
13,0.09953143823481159,0.9898231678314834,0.2970309692233636,0.2603909279068217,0.007035603043291582,0.001428715934747326,0.9342390097996617,0.9961138470861437,0.03222728258765322,0.0016665247640051221
14,0.10008235639724443,0.990630104138918,0.29720911073156697,0.2589747649655003,0.006891633379797706,0.009931568105405734,0.9344339810485798,0.9961490398505215,0.019544937683243356,0.011301968033459247
15,0.10070498723153191,0.9915299950942399,0.29753858420996254,0.25737057934616064,0.006625032424147975,0.008681930222903029,0.9345820748651193,0.9964193852309283,0.02508515050757894,0.009561654740910119
16,0.10180881756562842,0.9928167478727623,0.2979659285844358,0.2570570928607967,0.005845298527320354,0.014297290200921985,0.9349054599736089,0.9969087484681217,0.018347072184473904,0.012747838280079759
17,0.10287005609507772,0.9944394793151098,0.29837267063870737,0.2549831292153423,0.006012926487058524,0.018550866888648623,0.935714356611312,0.9973581399048204,0.012675247347344681,0.016376549474949806
18,0.10449712192702913,0.9962552084409054,0.298918804233276,0.2521072380984388,0.005016082559942177,0.02186985834550187,0.9366402923098907,0.9980209784185781,0.021838947007234297,0.019557956881390788
19,0.10594405581943274,0.9979042421071094,0.30007182879891636,0.25044619251464656,0.004400967453804162,0.019606171290102958,0.9381771670947028,0.9987162125515427,0.02541007276863089,0.016722093890208727
20,0.10769776910387449,0.9987016008638918,0.2998229645081633,0.24568259168557333,0.0018487503927212586,0.018304932217959653,0.9396034651015265,0.999234773345078,0.02823899345017111,0.012214649876884968
21,0.10917593860589082,0.9994954606384728,0.300178485729657,0.2414686487851299,8.947507366733904e-05,0.015240309672212687,0.9405077174046875,0.999668343986495,0.04970486261553014,0.009701812916620705
22,0.10976939107147232,0.9999999959613383,0.30046811451264177,0.23855665778955618,0.0,0.008775151730437832,0.9417424462440979,0.9999528616391977,0.04745756271707012,0.0058890959424486265
23,0.10977701187605332,0.9997199243331966,0.3008348538695947,0.2330955694741309,0.0003778723241455436,0.006476484358575745,0.9430127100136321,0.9999949825904495,0.01978535192250723,0.01028971380026834
24,0.10971787821561628,0.9994764193108633,0.30084766330998297,0.22781092845473017,0.0008937789358030302,0.0026374808357433606,0.9438379456516712,0.9998867720884683,0.013674297840048902,0.003220811181128875
25,0.10988751046439793,0.9991150039321517,0.3013100953938551,0.2235468576728679,0.0015194447910981783,0.006473216851747304,0.9448721660776397,0.9994621139664527,0.02275730983068651,0.005827133793106633
26,0.10901449797564804,0.9983702413835014,0.3018469350904855,0.22265414417510052,0.004038899660166602,0.012414200179541863,0.9465500478975803,0.9985872041221031,0.013266039401901507,0.017317721642541948
27,0.10790202955416389,0.9976109658077582,0.30230831194732993,0.22080641702570952,0.007243145362156131,0.012894490938537905,0.9481016806908139,0.9973414314846676,0.02180077362955213,0.018337601125298315
28,0.10682814652419478,0.9967180719565767,0.30301209758840586,0.21874088013821413,0.01082440802725973,0.01342723156778469,0.9499944931066886,0.9955524884532746,0.012837717766352015,0.018455629446984256
29,0.10578759220947728,0.9959055536412651,0.30346865538706,0.21657596137750984,0.014702292947915493,0.013733667287682244,0.9522513669046815,0.9931782487707131,0.05533999864816161,0.017266075149644126
30,0.10412988904337897,0.9937981395132935,0.30411057763827776,0.21364517860844318,0.01816784127746751,0.03140270372048485,0.954740854015964,0.9900704000726707,0.04991671364076115,0.04482450236858379
31,0.10329526537958311,0.9931447938180171,0.30462630715143113,0.2134050270740677,0.022427497022412826,0.018580579193551744,0.9573763283480407,0.9863244624396891,0.02440217804218581,0.02193571812031529
32,0.10325219015583936,0.9925159537622641,0.30529976206912024,0.21166801513413583,0.025776495899409824,0.019367354779755864,0.9602327693575621,0.9818858627466438,0.05662168607723431,0.012101980647735868
33,0.10158320704614704,0.9906364794964102,0.30629842441369226,0.21125520442384538,0.03152052784945203,0.029405739698759353,0.9638597560379947,0.9766254549893733,0.01382587782104738,0.0386009986132908
34,0.0992864794967034,0.9884651366829421,0.3073263904692499,0.2135480541966485,0.038789570855223485,0.030911216910251196,0.9679492189961025,0.970435501670562,0.022761042218116152,0.036892839331889214
35,0.0965456351342373,0.9855902106849359,0.30848572946828,0.21667420671483947,0.04699615186743623,0.040363009209685816,0.9725000147347292,0.9631746073753484,0.039345878728085926,0.049136037963042264
36,0.09152592919918273,0.9820651192850921,0.3092918015944662,0.22410324149425523,0.0599373914018243,0.04454237020581368,0.9774122227354592,0.9547362353727448,0.16279111779686825,0.04253367108981637
37,0.08595797328219179,0.9759384071701616,0.31047336243325374,0.23244459550104585,0.07182650100726896,0.08099383065869895,0.9826319764735211,0.944800293383712,0.06810713074504054,0.08970325905283019
38,0.07901517440759975,0.9684858302129524,0.3106994998424366,0.2454572654979909,0.08575392800051176,0.09272231460984053,0.9875651145675348,0.9331614416942448,0.08733163963665162,0.09187969725256515
39,0.07127282765319554,0.9589211642011188,0.3101732349877832,0.26424023042543004,0.10024772159713308,0.11571798395265002,0.9918090671062502,0.9194723214905339,0.1265417194748599,0.11559431856033126
40,0.062438414044276976,0.9466720136916296,0.3089862625836509,0.2850087058719137,0.11639609005722404,0.14403002972051446,0.9959107671729193,0.9034456480031289,0.1392800667527946,0.14184845910110927
41,0.05158054957402931,0.9314939101639772,0.30684929806549727,0.3131110631844918,0.13748521449814163,0.174071749670097,0.9990098965483564,0.8848303384803755,0.09800611040602915,0.16081428955695865
42,0.04009526415813556,0.9127269654752969,0.3037675837109083,0.34419892142150915,0.16096774565049995,0.19970344574553367,0.999999983596897,0.8632888799454702,0.22186271057604517,0.1740116034302903
43,0.026914767304021005,0.8875168301811307,0.2978762907163434,0.380997053520188,0.18817207080810408,0.24223302713391803,0.9975467650285332,0.8386188466339268,0.15502027290029022,0.19801983136595824
44,0.014852193435632217,0.8553481420789228,0.2909133836391706,0.4262179080163418,0.22087660643233423,0.27909008229996374,0.9905281425652354,0.8105715234229103,0.2657859002701416,0.19487836558255756
45,0.007356323675147596,0.8135574202626988,0.28067515908393487,0.47244874678663795,0.2600162236782161,0.326968765353815,0.976694315241975,0.7790495109290354,0.2582371764681867,0.194616795116987
46,0.0049378453499863304,0.761553222270774,0.26694799282826454,0.5247963911189317,0.307977797113331,0.37651430770429367,0.9527092933675676,0.744127011881656,0.13394640568250507,0.1905633447862705
47,0.0015374042786371446,0.7047365516837995,0.24567049661656984,0.5739317179870685,0.37791223575278265,0.40008485238663155,0.9157264504774368,0.7063891293268003,0.16626816581512446,0.1844935135695774
48,0.0,0.646773547925618,0.2136408464296509,0.609495137602077,0.46597550600330157,0.4242410870988663,0.8615374073899107,0.6663442183262505,0.1611122880148516,0.18211754974704888
49,0.006270683759640161,0.5912076558116659,0.7042916873291942,0.6080127772586191,0.5648025332026213,0.4461418130315269,0.7873840459848551,0.6244119392403203,0.3249061978166918,0.19367197173585837
50,0.02792183093660363,0.5356608757416921,0.7700952497650141,0.5422214146069166,0.6590002510690118,0.47946762399315057,0.694125579378399,0.5816071265721284,0.9999999999559639,0.2911883961985015
51,0.08255546130987276,0.46177571747775265,0.8622174382842224,0.4077632353305108,0.7442651588977891,0.6365324825591012,0.5807447754835978,0.539323655410781,0.8621511592925446,0.5497033822607982
52,0.18055418918435642,0.3601637335543613,0.965165240379966,0.24675396635907992,0.8340799470093065,0.7952691566886728,0.45310492119566526,0.49886659603905664,0.34140512853463756,0.7991334833134939
53,0.32763318392911955,0.23921185062939682,0.9354880354559901,0.11985978791237434,0.9272503364090148,0.8776145887517305,0.32339229246466833,0.4604647819561582,0.0729986313977107,0.9298194330454076
54,0.5247933489287906,0.11482837840609485,0.8486741354629905,0.07808855707796654,0.9423830460497404,0.9248910694082243,0.20144495219073466,0.42263196675857573,0.1379461531129796,0.9551395265360383
55,0.7598914790486064,0.0,0.7828110853088559,0.165791824273653,0.9438459684223249,0.999999999511076,0.09879209151718042,0.38434542579003195,0.002095775530335972,0.9999999979874189
56,0.9729798658155845,0.013218480606231264,0.7478424642052621,0.3623050491928662,0.9634435535918828,0.9806181535186087,0.029363869954865337,0.34525032147558093,0.44976708189755044,0.8840643174155378
57,0.9999999980380674,0.09628092316412024,0.7451659118858661,0.5855127627746048,0.9999999624034823,0.810943107486368,0.0,0.3067774027713232,0.4377991600683909,0.6842676362757552
58,0.8786605319416265,0.16707178014613078,0.7659229836705734,0.7784426020209234,0.8239328035077543,0.6379889417627611,0.006975989967374385,0.26952265632819894,0.5022173381894433,0.5061389065820897
59,0.7661977350511997,0.21022576224699127,0.79181078369459,0.9018725111028091,0.7202843724856693,0.42405637662721735,0.03733642384686326,0.2338882661826697,0.2944398070102306,0.291523801223641
60,0.6799257770488774,0.23269031160505899,0.8178134059622292,0.9730879550114144,0.6340091474382471,0.3211694268131983,0.07354465695130015,0.20017832997695215,0.06678327367746219,0.217318320372756
61,0.5953883591197744,0.24830134195342793,0.8505399122779785,0.9999999138194333,0.5559753217043398,0.3523441645615856,0.11207769478156304,0.168536674905265,0.03349248717357605,0.25612079493917905
62,0.5169305313155905,0.2419273566665712,0.8860819900203527,0.9592856328371742,0.49662670128958775,0.35879458874284575,0.15522977124986054,0.13940978557537448,0.1024094962244701,0.28087757158584636
63,0.46027960373747784,0.21614444746665143,0.9150838947900725,0.8837185819435347,0.4662560748588817,0.30971319781889284,0.1967697077410922,0.1129804674164489,0.030595383779600395,0.22624587959916287
64,0.420207762242346,0.16846620279318358,0.9354568413650355,0.7922294118956192,0.45710019035046157,0.29066908373541755,0.229889366265539,0.08962024680830039,0.07510251536027733,0.17455032459762118
65,0.38192381185066654,0.12283215093519727,0.9545990433644597,0.7138733518799929,0.4656388910725478,0.3088656149224606,0.2591301339652915,0.06943686288506361,0.07571273009641938,0.15439520857736702
66,0.3418022413210629,0.08757572899876839,0.9728494825958394,0.6632789817164014,0.48715430274439026,0.29565647845765874,0.2864613004234403,0.05248840930506244,0.1355440897087495,0.16173005812736202
67,0.31370810387923237,0.06645428413350413,0.9865768012104923,0.63900019339379,0.5036797158794794,0.240863689907825,0.30576786808588935,0.03867925805495113,0.13210898657674539,0.12591933547732292
68,0.306072207778826,0.05610255205933702,0.9924093287811784,0.6225628317318026,0.50770177259866,0.1827306338754722,0.31494674047220145,0.027939289581315134,0.019879046199113896,0.06394366249031502
69,0.2974060806658229,0.05141312538682742,0.9997835486821005,0.578233000003514,0.5071498705498357,0.17107619014412756,0.32115592077320804,0.01983175098505919,0.07352038741291715,0.0929281320939069
70,0.28693724260585796,0.045470375242108736,0.991504022992459,0.5042985712620902,0.5050006928785685,0.15002830531165515,0.3277087545268601,0.014252167836832178,0.12944887816261538,0.07623492604918206
71,0.279472868839967,0.040433605113452356,0.9855176918503076,0.41326787733867637,0.49756791429345626,0.10340711150705399,0.3292751485503766,0.010497802573127058,0.02816063235035167,0.07198750213314206
72,0.27687955335710046,0.03756943918408534,0.9834003308545808,0.3025983661347889,0.4926532097298059,0.09291442942679913,0.32515263941854067,0.007947102610661049,0.0,0.0935049423021428
73,0.2739521447474525,0.03822454832034451,0.9826571575950419,0.1724427097979354,0.4941357613962774,0.09203023659158487,0.31736743046493043,0.006294218391367174,0.06944882171650966,0.06003825781335979
74,0.2752276145961385,0.04370698864239305,0.9878699339679404,0.05914519041949218,0.5105517136510003,0.13046421275185657,0.30573832118340377,0.005399495773567241,0.03160110873886845,0.0988633353474831
75,0.2792645887787418,0.04915878598857992,0.9976070272577254,0.0009679763794261785,0.5443014528487136,0.16009535074181022,0.28857910356301353,0.004731112785192825,0.07897920236978903,0.13490166501175102
76,0.28574308039371077,0.054130543294190994,0.9890505693669819,0.0,0.579640106815332,0.19960817323837893,0.26538203590047116,0.0038806993685960253,0.0057279660128577254,0.14984563361731756
77,0.29184261380057,0.060040334533620274,0.9764054058193623,0.0474342886965975,0.6138480295706429,0.19782712114101422,0.2397736022454919,0.0027889090888957497,0.0508544626159356,0.14399030791350295
78,0.29973183091339467,0.06577301421548892,0.9651255367576873,0.12933862194791093,0.6330841866421109,0.1736471008645921,0.21810084926849527,0.0016635605737071314,0.08683783794482851,0.1575566414878986
79,0.3044544066708339,0.07452164862269821,0.9575853471383933,0.21922353283365498,0.6549194435120703,0.1339709643335222,0.20292994734072528,0.000874520473321634,0.09447136832501711,0.13334767987325366
80,0.315369914120189,0.08385048056289847,0.9476313172290965,0.308345898971492,0.670482778105806,0.18046734907556758,0.1915170269326057,0.00017731857527604074,0.2299116787310133,0.22026880763781617
81,0.3145536075169184,0.08900700105946063,0.9463383650452575,0.37694666103274566,0.6783946835084327,0.05586568676074526,0.18258659893824647,0.0,0.014554519639003526,0.01769620475015196
82,0.30869643920622525,0.09706362170340158,0.9475292254249085,0.4202835804031078,0.6848282595781794,0.05612852326108034,0.1785304360432847,0.00029287366342498896,0.03491804615733457,0.04046171653387169
83,0.3029867003925729,0.10358954458377324,0.9495241575137334,0.4386702789063703,0.6851115275070113,0.04076262898990076,0.17774014469928168,0.001065397224105189,0.0003698614086388318,0.027034150858595712
84,0.29524594456560177,0.10788936337795732,0.954620441337126,0.44405526211420293,0.678691097816177,0.04755077164029996,0.17976989636110993,0.0024409864374861814,0.022488326680250602,0.04037093268694916
85,0.28726839582409414,0.11082160437439109,0.9609924777081006,0.4437534610453373,0.6708483315524452,0.06254461408997258,0.18543030191703552,0.004392940409578359,0.05497248713267876,0.05259257216202058
86,0.27843812202444046,0.11382642955711858,0.9694709277997562,0.4400672265642021,0.6597190344902616,0.09234270666479433,0.19521036582098722,0.006969903971811232,0.0028733790275208776,0.07263172858405209
87,0.272293306437012,0.11481268123992837,0.9766146003453883,0.43328621288538843,0.6498131512780039,0.09718143589785817,0.2067749110052446,0.010170106929118818,0.0612199619926719,0.10189330566319298
88,0.26234386181943936,0.11891001099318606,0.987205400515121,0.4187022155843962,0.6361499540154133,0.12189648234124527,0.2220174864931147,0.014036627277021449,0.07453244205569766,0.10563497411267922
89,0.25187195676764873,0.11984503170667252,0.9999999887241877,0.3946483368147408,0.6197230101807052,0.15521419074327483,0.24334676332738348,0.01853501136645401,0.035035611845978365,0.13075214125865567
90,0.24062818820122872,0.12215113741760697,0.9857796364418626,0.36383703490100755,0.6022948031079491,0.16749935071318878,0.2687107499209636,0.0236595209145054,0.10504922846187977,0.1293869915148321
91,0.22812305746977501,0.12309161386993189,0.9682029173456601,0.3197339494865733,0.5825156825815349,0.21231246710060267,0.2989910061227449,0.029717040006571292,0.08097420615252907,0.1490711645353554
92,0.21529712923585717,0.1257744615200657,0.9475850000983882,0.2695989810724171,0.5593594724742668,0.2443167925097112,0.33566716903341354,0.036931028301762835,0.05888797673503504,0.13683603823702334
93,0.20377074458674718,0.12807451967796818,0.924759141618775,0.2203391241725211,0.5296711826781381,0.26998205838586464,0.3787984061501704,0.045539912784721,0.046795973594510695,0.1293184135648355
94,0.19244953674480245,0.1293718491173018,0.8982320433037966,0.17933779726190038,0.4911380352605348,0.2951288818807258,0.42741110205732546,0.05557898982252669,0.04214095158997031,0.13902104696195902
95,0.18534923276769028,0.1291562596881774,0.0,0.15086280840575328,0.44276039436673764,0.27904081814976955,0.4785878762778593,0.06688961032576006,0.031171554058404025,0.11649066431394607
96,0.18180018416699237,0.12917021952152197,0.024823860319791204,0.1357073986272264,0.39212873609577825,0.26597936316919085,0.5289381873575337,0.07941844855800947,0.014046982384295003,0.10470038454042242
97,0.1803271507669355,0.1344640555129008,0.048457097262793056,0.12536593457466236,0.3441271442695793,0.2543731258213084,0.5781392794870588,0.09320349795998353,0.03039946519466854,0.10267699010607167
98,0.18144573645251863,0.14811213412184887,0.06948419430805806,0.11465649322550318,0.3002414142491322,0.2352898130763095,0.6249664221680181,0.10833078828368661,0.03039946519466854,0.0828876356879458
