Frame,Center of Mass distance,Symmetry,Grounding,Arm fold,Leg fold,Kinetic Energy,Potential energy,Bone length coherence,Torque,Center velocity
1,0.06589250022237689,0.29662733803629115,0.08050823075070343,0.9999998060737982,0.17218737884148053,0.1932230579753507,0.9999994986712324,0.0,0.17931727657532887,0.3025848574727263
2,0.07888250668237162,0.29624106372955133,0.09196747929651089,0.9900018820029738,0.12157414950435509,0.1932230579753507,0.9999994986712324,0.006713117115068408,0.17931727657532887,0.3025848574727263
3,0.11208619447081355,0.2820796561467923,0.12706759695522957,0.9732875427828084,0.15730522165417984,0.3007424763381282,0.9663326671358525,0.020805890919197913,0.12154733412965034,0.4294283193065424
4,0.16162792096408043,0.26544193187133336,0.17829661349330536,0.9543592543495069,0.2150018930369589,0.41684719434349937,0.8964240900349697,0.04370971654159493,0.32391898072213404,0.5048417404958372
5,0.2336810217430105,0.24241980642188687,0.2504953822868306,0.9365575633005239,0.2624548269820855,0.6061572451344902,0.7841937564716659,0.07453818205152062,0.6409621424208017,0.7826362254700848
6,0.28202475774062913,0.22407325024584296,0.2985650039022624,0.9163182625039633,0.3247599491480701,0.458000201401525,0.6609487735738044,0.11508139665404678,0.027351178665542153,0.536970350820873
7,0.3315830435423388,0.20700672919191918,0.3454222284613986,0.9017487124434924,0.36338688948882364,0.5143161257029983,0.5418025428717496,0.16179453220455062,0.6179559284227056,0.6657964893304217
8,0.35885469813553517,0.1968243811166638,0.37150798183985495,0.8915031162508896,0.38669692414472734,0.39045345903832457,0.4258217355538607,0.21167605222357486,0.05085499924191437,0.3248324594352096
9,0.3753879827923779,0.19634005299684576,0.38765172996270086,0.8815814079539921,0.4258209097638358,0.344502618017619,0.3251194174831706,0.2643635295351598,0.009123185495149158,0.2923011095189593
10,0.39582080918220297,0.20041086965277974,0.40730164651780776,0.8700496935336487,0.4498769934133661,0.3609724590007232,0.22738413870190746,0.3171284042727978,0.007524144375374547,0.3524858431849288
11,0.3721921650949444,0.22336013523067957,0.38527672449002287,0.852823035587108,0.4509980010758446,0.3589620974360261,0.15765135448920065,0.3675003376534285,0.07378088780957504,0.1647889251375857
12,0.361574066561484,0.24502621584444031,0.3740681661136401,0.8391872056708451,0.44538018790217065,0.33214911571363703,0.11037407069258404,0.4166818957469896,0.0785009623695428,0.26950323104263374
13,0.33877964664842486,0.2652009899775742,0.3504569954876974,0.8407013232775726,0.4052003147795404,0.28856704033473024,0.07076500166590281,0.46236050656464533,0.24591321376309222,0.25275502496437957
14,0.29432173562710445,0.284499295973158,0.3064019105226581,0.852744181618614,0.39915258602872333,0.4017657226175105,0.06616076486079797,0.5069574806293135,0.4633203848078098,0.41449053797572166
15,0.26767117064335466,0.2937745920768073,0.2797326692237334,0.8751967757682965,0.3836887679715991,0.2766527148118657,0.07269760532112564,0.5489550551632408,0.024153587185073797,0.3118712260127914
16,0.2312264681169357,0.30681516254118524,0.24246106807657603,0.8943147156317122,0.3522228851400287,0.3034745455502755,0.09017283916643944,0.5874191619010958,0.15882014050184867,0.311837553749568
17,0.19493911143030956,0.3196284491533884,0.20433170474693305,0.9048371525541024,0.3049618780661913,0.28796163072217723,0.13443070847697491,0.6223771126282649,0.22478244069608258,0.29880171127761695
18,0.16974589725781525,0.3251686090901237,0.17645705427099945,0.9131097091388177,0.2604750407653049,0.23276557566486875,0.18242959929223956,0.6537825539107106,0.12350883852879198,0.2571464147334271
19,0.142475173216596,0.33360745903944067,0.14685989155081244,0.9129848992570954,0.22218785187348966,0.24166774329251547,0.2318520725314082,0.6817590918400211,0.21144236298332914,0.26555102737732117
20,0.12489951222351654,0.3379672525533208,0.12779870382563432,0.9130022997417587,0.18338547957763932,0.19556711395229964,0.2853156406240121,0.705548901477489,0.011588740143178265,0.224406776376088
21,0.10368409662167387,0.3444534037070999,0.10490291734170125,0.9036312438426165,0.14471883125638552,0.24087432721157512,0.34442614312712255,0.7252955446222479,0.21314778865154507,0.2694565721060526
22,0.10176486888153227,0.3495496184253811,0.10396828848706174,0.8884872349808959,0.13654447570266331,0.17736693607612006,0.39914518582726427,0.7407032409570983,0.11637411649669398,0.0692688629090756
23,0.09978398694785029,0.3573780327886137,0.10325028389031961,0.8684803261163139,0.1294466730538608,0.16232755044179445,0.4390169157616408,0.7522021364933169,0.06900855802605285,0.046241535374287955
24,0.10508660920316358,0.36581668548222523,0.10984334799762485,0.841786922144918,0.14258949927529335,0.14733553001012142,0.4624944783237766,0.761530813141288,0.2943828736593793,0.05245226985698767
25,0.13044092049524778,0.3697708119890547,0.13789094848591837,0.8095535615043281,0.1567646408359878,0.2695372167946861,0.45922671816776023,0.7673962264424335,0.47855576161523566,0.29274799434570364
26,0.13983178429120788,0.37523270284741533,0.14962534477864947,0.7757838529873287,0.16451312892089265,0.1651951097185938,0.449863968960651,0.7702651693832746,0.1418341289006815,0.12142967286580694
27,0.14087047649519674,0.38704728228035096,0.15330446322326582,0.7426198401196316,0.1704480921499236,0.17331662908917675,0.44817903576235296,0.7707963823707538,0.11557610844802933,0.06617991892346753
28,0.13721130919331712,0.4016996527216546,0.15101243881712217,0.712886323054929,0.16048258560790188,0.18040498235779462,0.4460567977958053,0.7696890968943904,0.022922036724930296,0.13928062528875548
29,0.1396740131496683,0.41648343245473995,0.15486538075900474,0.6880597775595022,0.14686472607396467,0.18917727804507287,0.4315807175356282,0.7673389391530357,0.12691694733254158,0.10239370409100301
30,0.1355785163543315,0.43266094987837994,0.15153740324855963,0.6634058312024504,0.13312226868964033,0.16816065107748174,0.4098374377329646,0.7640652330118645,0.19056041514655164,0.14990191739728986
31,0.1333536923429167,0.4452699754051937,0.14925935460099393,0.6341909686818195,0.10940644337493596,0.1466045013076157,0.3957629995635001,0.7600536883937951,0.26700324756878363,0.05820659195964694
32,0.15376900676905936,0.4418058874985652,0.17009808411980834,0.5975550804794743,0.11496929997417021,0.25007343607677723,0.37307293164044947,0.7550401977039733,0.014428828417240675,0.3153411810392137
33,0.17827837169263827,0.4438887331368066,0.1931371221291237,0.5536294412024124,0.13602511766266673,0.2770714544099932,0.33127110345752736,0.7501858313215244,0.243033491546155,0.2404006297240356
34,0.1850422487402625,0.44756846521463733,0.20106661815007293,0.497511369219988,0.14854903786744733,0.2653092981133515,0.3007779672340045,0.7456971565300428,0.13932762380970903,0.3616326710074354
35,0.21250318371452903,0.4496598806475664,0.22873512618703928,0.434869210960561,0.157944255049974,0.3378739237346686,0.2700339000353416,0.7417952301405993,0.16327400434111544,0.37652058558528834
36,0.2309920650798392,0.45211202082960955,0.24592880317276006,0.37078481926586415,0.18901324996127253,0.32303730935133507,0.21992539919241846,0.7391917124020893,0.1559203686070362,0.2839036908543664
37,0.2502779863129571,0.462309530234898,0.26409990977375153,0.2995732844004378,0.21384069956892135,0.310753220797015,0.1716980524652376,0.7375713312592833,0.048701331317945656,0.2423484896009305
38,0.28004201902060716,0.4704898416806466,0.2914827882448641,0.22777687148438858,0.22964425487881637,0.36695563836432515,0.11820415396978187,0.7376191176767477,0.3140988429328566,0.3801163325170563
39,0.2905375391990462,0.4836292684053069,0.30095660558824633,0.1529334475713037,0.27164244399972204,0.31757544222812956,0.07400324991365699,0.7393489033979502,0.026005865948898407,0.22277223362472434
40,0.3066522615811206,0.4999436932832564,0.3158582581678235,0.08045429183051825,0.31603493097457164,0.3201711015974026,0.04184181138017465,0.7430496856551335,0.21484899860755927,0.23912222633988145
41,0.3138242038991731,0.5193627951115739,0.3212057327922166,0.12602626786488605,0.3477680882617895,0.27804378176054106,0.013582934839164057,0.7480488096859442,0.03516109198727153,0.23807970005815643
42,0.3141804417363287,0.54206313127201,0.32018200847667144,0.18163066585951884,0.3612874086487074,0.2410785296823152,0.0006346445558625401,0.7542163820693233,0.0,0.21271794711216535
43,0.3018955180137176,0.5673450594506224,0.3064001635528364,0.22824765068592864,0.3697882312129831,0.24878335059332063,0.004212714644513755,0.7616352316323204,0.14594872165849188,0.17615300055095776
44,0.30394234603628023,0.5871104219252469,0.30685088176685243,0.2668900646457317,0.38019716274149806,0.2070079649114761,0.008013839213127014,0.769982814106404,0.05666541396510962,0.26335327021616095
45,0.3046269955359494,0.6055338605421002,0.30617742490056316,0.3009600658627411,0.38820553882459957,0.18758084065188957,0.0,0.7797009420043849,0.0011030823276826354,0.21431403008875935
46,0.2890556903191231,0.6255924914809483,0.28959780780719,0.3284599267588294,0.3898222178799791,0.2022599838027471,0.0020929187500705014,0.7904267865271887,0.03179256953259062,0.21117968744932628
47,0.26922403208182166,0.6452584241853193,0.26785938883017424,0.35280338210683243,0.37767628877548076,0.19331851697656266,0.01944980834399525,0.8013243162395179,0.26254969089932506,0.22634838129298476
48,0.2582922500518031,0.6537256742048064,0.2566359812103026,0.35947832345644753,0.3713934021495117,0.09846439322066898,0.037845527358998036,0.8120196653628385,0.5644618453954992,0.10298881230882116
49,0.21682475701166892,0.6835117651370166,0.21217472576170462,0.3911517749333893,0.3398335833464894,0.36750195320347023,0.07714723087043542,0.8234743933455237,0.9505060857203617,0.3331419248487998
50,0.21159656242990774,0.6867595530608359,0.20636779807419156,0.3943765282207876,0.3375598098955056,0.053474107165727695,0.11327023866834798,0.8346769220796314,0.5329755296586495,0.050091789145528844
51,0.1793922760772108,0.7092400083674617,0.1707689205313606,0.4107730714554215,0.29988364128395,0.31653875745081367,0.14738339154962993,0.8464764552952614,0.4344285463596097,0.34168303995650207
52,0.16360601147671747,0.7158879105249991,0.15365211021779826,0.41347847144969424,0.28567355623691176,0.16082758645207004,0.1963286083900939,0.8578907173524253,0.214547482132648,0.12961303029291857
53,0.1502096781458769,0.7234425030434667,0.1391138273611441,0.4124323703874615,0.26150673207692476,0.10708400749117623,0.22809650764845274,0.8688826225130969,0.029558941918389457,0.12044804392854819
54,0.12718203130677627,0.733294630593227,0.11440468620223034,0.4113021618474172,0.22963793187216164,0.17508067935419103,0.25863907486105514,0.8796559737716874,0.02519199855147015,0.19418440840903453
55,0.10408635267334378,0.7446959745128154,0.08937060865647051,0.40920340558928914,0.21065917942970167,0.1914066316657083,0.2949081777427813,0.8903210101226965,0.5928563459653048,0.223702176484797
56,0.10388053451141965,0.7448129393158789,0.08913826167017802,0.40916349569531074,0.2104536570878705,0.001802316700726413,0.3131983143068164,0.9006088248441572,0.051425990399369785,0.0012754129935300944
57,0.1038743294237517,0.7448174655542077,0.08912952682106962,0.4091602041112218,0.21044297398089318,0.0,0.31344629218565834,0.9105379047868669,0.38444273595648437,0.0
58,0.09182453733294278,0.7466046391181701,0.07473100155015894,0.39310476557305607,0.204203653138227,0.169935283477514,0.33632207969477296,0.920394845318797,0.4985091594894771,0.04212840020757016
59,0.09121944478675496,0.740836302977522,0.0740129969534168,0.3713835429048431,0.20055626866921802,0.08430904951145039,0.36219555874519027,0.9300184335762575,0.03830091742711916,0.07231312438266092
60,0.10465372817275877,0.7250856918030519,0.08852856920238455,0.33391833453234165,0.2072382024348549,0.17163428202258235,0.3575205959739791,0.9392403444278474,0.005538561108844696,0.1181059429265936
61,0.11869783633738165,0.7020249799867725,0.1055213446586031,0.27860178557245596,0.22099860274178276,0.23805786127673914,0.3401432092352056,0.9479926818353008,0.0064109376892815696,0.1253451776070073
62,0.13700790475617514,0.6739011989566763,0.12722133029954194,0.20929850412046808,0.21325786203140107,0.29828685695922436,0.32163534511412295,0.956087188235614,0.26239718762854886,0.15819145893912237
63,0.1739082014525656,0.640005413362673,0.16743133468689625,0.13125305663225206,0.21480990436739755,0.4185125446532233,0.29409199709175055,0.9630604721966469,0.24016412962236403,0.29889762704375705
64,0.19804366880409296,0.6120378239764396,0.19516011318271506,0.053491898391839286,0.21604660723519764,0.35348112174172,0.2672293220192885,0.9695965344257721,0.01115371434213876,0.17675431980891668
65,0.22576541107761872,0.5787697341519542,0.226260543434521,0.08754234436837521,0.22604573409339834,0.3688374320099469,0.25229552771630975,0.9754919740169808,0.36853010225255717,0.2834518512751678
66,0.24238388971031366,0.5471298021933979,0.24553311450813145,0.15444674836735586,0.23226525762589642,0.32138286418477363,0.24753175802682903,0.980832199724151,0.23916549163405076,0.1564735415581897
67,0.2526932342387513,0.5168111334245955,0.25855415407458865,0.2204167178599126,0.2438369649865908,0.3017481383026848,0.25237991275444066,0.9855797739475839,0.08829357752704266,0.08376781738603205
68,0.24308844985735953,0.4957388921066036,0.2505914656270275,0.28399802985920947,0.22350095173052675,0.2974262352193991,0.27850081937414467,0.9893514970371307,0.035500178514928746,0.13794294419847455
69,0.23453717334205237,0.4734581523261302,0.24341229314452148,0.3458894276991192,0.19263624366429355,0.3061383287769798,0.31820476481023957,0.9923328440130318,0.08000652956796264,0.1799040091765905
70,0.2273363384373316,0.4539164040658588,0.23635191460989421,0.41977474617731736,0.18617470501357114,0.3166232612800163,0.3524226562871333,0.9947697360376165,0.06655325674035041,0.07781237807839476
71,0.2114379917236431,0.43146668215986383,0.2217655900831439,0.49850776357195176,0.19192150291978155,0.36677316884280636,0.3950501007755124,0.9966912404455126,0.27166472350275384,0.2495843231115988
72,0.2139790078590006,0.40304174193329595,0.2257574161258591,0.58131252669541,0.2219876104348274,0.34677020536556,0.42861022945705246,0.9981713056583105,0.0705103990939812,0.07406032198440159
73,0.22383331600450235,0.3764194107459241,0.23549065848776982,0.6593904036856149,0.243479878266492,0.36936079561179425,0.44641170820641285,0.9991815339736063,0.01994843721534339,0.15574812518240647
74,0.21686312014632128,0.355191925057972,0.2284425087418943,0.7248517311361022,0.24721695234186278,0.31311878564845325,0.47310032233618915,0.9998974565959837,0.021538744749253803,0.196447305476487
75,0.19741629142604986,0.3437945787441696,0.20895942780476237,0.7729138172444493,0.23645767065802284,0.29216639664213173,0.5192879864833713,0.9999200964052365,0.0052230219078163815,0.28953863628034826
76,0.17611145057845487,0.33977124936048975,0.18611255647584088,0.8038526398729784,0.19952319482208974,0.2824941868476683,0.5719341499915759,0.9989869414846771,0.21873956635762626,0.37561674887420254
77,0.1588892929281798,0.33808128701914425,0.16859918401273907,0.8258702205975332,0.16014398913583147,0.2213966713052167,0.6252084914484699,0.9966132546898068,0.03680308223586005,0.20058656339213962
78,0.14005879176790031,0.3443359875465608,0.15027958497689575,0.8355630075036342,0.13497077032158528,0.1966260492824625,0.685044856125499,0.9931543009864623,0.2833464007229016,0.15621135254352683
79,0.13330851662606752,0.34650311808979734,0.14487620731820888,0.8381495802301495,0.14051411465174993,0.1209985417602898,0.7350338349540875,0.9890079742023421,0.04919547099233398,0.07675612248693922
80,0.13619707310783166,0.3449746101058412,0.148226021951425,0.8379232240251838,0.1443731210502284,0.09064718292974851,0.7618282719915381,0.9844866089324492,0.024619180372474334,0.06616821265855055
81,0.14696189075437857,0.3425102983100535,0.16101646150140686,0.835364515218169,0.1688168619930428,0.09943931119175736,0.7679680938968869,0.9795854048396551,0.0751563873945894,0.06638302604677548
82,0.15847258201504558,0.3416131185817995,0.17374488362272364,0.8319373204798939,0.1888186354846348,0.09508410962501905,0.7594868135683455,0.9747321726484287,0.2067635451242344,0.09343171869891724
83,0.16165772053449257,0.3419155897906483,0.17779173921481722,0.8288809571156137,0.20707036631862746,0.041392794035397515,0.7477424613934331,0.9699203370119103,0.004922032084820001,0.02017263042669678
84,0.16769135339405078,0.3435591568041628,0.18426076846477865,0.824664034553251,0.21544093584465035,0.07362298284523136,0.7323301036506996,0.9652265133313241,0.07564753700917007,0.06551239739688922
85,0.16440647178319756,0.3486742816350739,0.18075197957778513,0.8201007080158563,0.2089153167602501,0.07109454294076975,0.7163759418017593,0.9607866480058598,0.005783243348976312,0.047901762907356954
86,0.1558723193237899,0.3572132941995679,0.17219619487573648,0.8091721446848028,0.19587349391792655,0.10956638297469772,0.7081816753994667,0.956445735947217,0.030292582579674304,0.13245935324030797
87,0.14426793524168946,0.36843835077159676,0.1602015000795615,0.7935682393656379,0.1674076843928075,0.13498767401704953,0.7047017309264423,0.9521071961917423,0.07692250148914154,0.11061650307525205
88,0.13322858382531996,0.3763302387876585,0.14903224852416197,0.775229155093434,0.13662940841914917,0.13789972958706517,0.7052611405260911,0.9475213843985765,0.14268056117531283,0.14851493941127694
89,0.13348759406260072,0.38618543922446563,0.14853872954951927,0.751150589593081,0.12251296808097335,0.1394825246782543,0.6933929694614761,0.9428663828756584,0.008704265382124193,0.045728731745666974
90,0.12737928834415202,0.4018990594233206,0.14262873064251805,0.7174926558075482,0.11271296775942054,0.18930901847263173,0.6711226227477627,0.9381545822988133,0.11058153260389832,0.0704253990956806
91,0.124841055156117,0.4146161953851082,0.14050965624872977,0.6740872179765078,0.1260685464206028,0.2181547070958227,0.6493162365914376,0.9337527640673255,0.11277284436972021,0.09089469337316387
92,0.1273101217281257,0.4272582378335723,0.1430270397618792,0.6298697642252215,0.13037450377725343,0.2291609897676841,0.6182461276453457,0.929795977469247,0.06518722900267315,0.037179180685233
93,0.1326797101761464,0.4383346362594738,0.14822078104195996,0.5858662123584653,0.14025324068143222,0.18269486276134375,0.5856190153250098,0.9262377688029285,0.028692259319173043,0.06073568168132276
94,0.13444254613626547,0.4513953647956684,0.14837713484100484,0.5464799905746749,0.13674919342190778,0.18469672241671486,0.5578678104045438,0.9231055080059107,0.01487696574812083,0.08761259362867224
95,0.13008416436623604,0.46680434086171346,0.14387868754998437,0.5012702393254842,0.13708845502708814,0.18684951892648402,0.5358926375288167,0.9202177438854044,0.017586774083447818,0.03711762719357065
96,0.12250059648571916,0.4844594409678052,0.13536133618401266,0.4533193551971092,0.13831562466979694,0.20359473127741987,0.5213667589322528,0.9177263361357787,0.0287706538404653,0.06113466828155576
97,0.11267828789441842,0.5057739530118782,0.1230189943933098,0.39450963740992856,0.12189526802465211,0.24943937099717042,0.5108555513511479,0.9156537578281081,0.027478837503419576,0.07256934818044368
98,0.10288328045389915,0.5277120538062304,0.11138330189550362,0.3278190994309888,0.11797685274328237,0.26749686473432455,0.505044662723374,0.9138752939262349,0.08117034726754971,0.08562994701914925
99,0.09527832439930592,0.5503765092583089,0.10126485268789436,0.2599432252659495,0.11904992744920816,0.27833248718273834,0.5005910361973698,0.9124461971504211,0.020600709743768528,0.020065773574216336
100,0.08433788152326559,0.5755611006683697,0.08859670102543461,0.1999398377938918,0.11607810264553277,0.26563427842108533,0.49704338847327223,0.9112959850632314,0.1437010283692533,0.04865814562903567
