Frame,Center of Mass distance,Symmetry,Grounding,Arm fold,Leg fold,Kinetic Energy,Potential energy,Bone length coherence,Torque,Center velocity
1,0.4176107862240632,0.18784681273892642,0.7912114594183595,0.46911207975154645,0.7535418745047165,0.2404731103731568,0.4943199958957792,0.0,0.046309902444974085,0.17092551385156757
2,0.4126412240105386,0.2016380567037477,0.7884161015545544,0.43263500696659907,0.7366496112606986,0.2404731103731568,0.4943199958957792,0.10022631375233187,0.046309902444974085,0.17092551385156757
3,0.4078589443631882,0.21247155890154973,0.7839057234160465,0.37906869600366166,0.7050964902554011,0.2902113623635502,0.5031770179277668,0.21530111420131984,0.1900777010989243,0.17562429196226467
4,0.40784813350257226,0.21299064671602363,0.7841742430138015,0.34283467669747664,0.6832031695309528,0.1268850416205401,0.5104290173455088,0.29762765457065704,0.008791530514005177,0.16175386564055796
5,0.40974743302711986,0.2076427704351217,0.7843348957645948,0.3425485179214836,0.6795753148791108,0.17516977686577473,0.5091543387281814,0.31458074539920977,0.1776088824289804,0.20564932011565898
6,0.41615596734681126,0.1886313641085355,0.7856697740757326,0.36892943131889894,0.671657923034982,0.38185127013462467,0.4929255413765412,0.2664446262808916,0.016715835841375603,0.3348515549828205
7,0.418967957378841,0.17662106649071008,0.7803546717037048,0.3924057886972936,0.6646565455428612,0.33983183992527133,0.4672218953304081,0.19017223605965605,0.20292098623227803,0.35511390922766384
8,0.41358687150036877,0.18438006482334846,0.7705406663896553,0.39046620444498276,0.6882179292006643,0.19373865436449375,0.4512323633434982,0.1264998872913796,0.14252512060097924,0.22722047448148022
9,0.39355157792148443,0.21090315163153367,0.7448187005080841,0.34993408980979723,0.7053482307839576,0.33601394326286543,0.4616582323859343,0.09741408084456114,0.08379979092061235,0.3534879692954208
10,0.35361665032057926,0.2510251379031794,0.6941199262767069,0.28208238590773377,0.7099277254285329,0.44502943013753515,0.5037104277470785,0.10639663999143764,0.09340985699910677,0.4042114848065335
11,0.31345612290579483,0.28163651260236167,0.6391329754387628,0.21581912952090124,0.7032000072858482,0.35311420100751645,0.5607315969746608,0.13785258815610008,0.1162964568834123,0.3330860134358839
12,0.2860059692475193,0.2976521487021902,0.5965127395329952,0.1950785054392171,0.6992618431779681,0.1831975930883368,0.6060442864375525,0.16628541014691298,0.21857362663541174,0.20030045748445732
13,0.2703327046803849,0.3030435373696286,0.5587970026050184,0.2341847796518146,0.6987752901084747,0.33839998196134735,0.6297579753525012,0.1715428697654747,0.06852229739914062,0.23871994050414738
14,0.2494612662224496,0.30668092856393686,0.503678712927303,0.32461096338485046,0.6901744629161649,0.4234697432081087,0.6459311574044004,0.15319335117019964,0.38337056711831946,0.34050515413202465
15,0.23397070573345272,0.3124205017867122,0.4677089793045398,0.4027802481922125,0.6752809297081053,0.15728791032131817,0.6624064450804813,0.13126737840049443,0.11829788167823717,0.21807055725471486
16,0.23564076454353355,0.32045898583531024,0.4767077240682976,0.4150234518304779,0.6319348022592824,0.23613203547793768,0.6653825333343195,0.12173542792392032,0.4161992503183125,0.2092789603998176
17,0.22909824077553442,0.334486327339828,0.48478584511403455,0.349419093932355,0.588928295639665,0.505540267580663,0.6672873873093281,0.1328516734315943,0.009996830738010762,0.3413036541001934
18,0.21583971509670616,0.3424624319866047,0.4818573749710012,0.2736247917117698,0.5552357550221428,0.5050043091513582,0.6862878438019471,0.1613765543012956,0.26929636313749994,0.30041796934915777
19,0.20751345575564303,0.34113045809334125,0.4769589265513561,0.24665849812437385,0.5373658533304638,0.32329386971706375,0.7046111397653491,0.1937307864705071,0.07889359837721784,0.29223727891470236
20,0.19957148769006988,0.3338520958305187,0.46833688119221895,0.29623542795490276,0.5111600291955359,0.4568177657212378,0.7029852896376051,0.21998134870123792,0.14810175298212874,0.5360443654788729
21,0.18023080689808513,0.3127150577348246,0.4355696662685503,0.39034488955447155,0.4607144558347885,0.6234520026802345,0.6833210954678794,0.2332650430377938,0.1934014083083502,0.7073095546683951
22,0.160770151026466,0.2900602982156139,0.400715113104217,0.47985877229601326,0.4386333137386761,0.49208602325131706,0.65390043104767,0.23631635206522295,0.5078009482490704,0.6314019298656762
23,0.15726379194814644,0.28980121587278324,0.3971987999412351,0.4925910804031257,0.45610707134261597,0.12240622468715023,0.6229224288726944,0.23979432903984527,0.1106739710800873,0.29131054782545623
24,0.14881647526125205,0.31598709533700503,0.38258357241776053,0.4304479483340124,0.45308775170283017,0.2574619087921918,0.6260413745737582,0.25256115643900473,0.24238183907397454,0.25258510992323574
25,0.12945429529295882,0.3642631861375083,0.34947022384010995,0.3303952672017382,0.4235800094695372,0.5074314775109561,0.6864863555799826,0.2784348234343343,0.054684304521315535,0.5390429799358062
26,0.10348086310092992,0.40314230500419224,0.29720738032779415,0.24322433366520146,0.3796237344770691,0.4480536064927845,0.774630468693123,0.31311679661718517,0.010966946933386798,0.4767270895387049
27,0.0728786340502049,0.43600047943771253,0.232569580605827,0.22627222547410922,0.373561165253501,0.27222029266608544,0.8498835247094764,0.3468290619921966,0.10975399857341264,0.30152160194050004
28,0.047731342770189374,0.46469983891240885,0.16335036084711171,0.28145299241589844,0.3457416338996091,0.31329750851758414,0.8979173306946129,0.3718505929005154,0.10836306743837477,0.27948036708424295
29,0.033973795258300556,0.4832721684231513,0.11207344535281462,0.33351499602995,0.320899580782509,0.2595465992962617,0.9249185006170177,0.3885995665917633,0.3916366863074754,0.24556398673670582
30,0.02985359834850838,0.4888938940767407,0.10441041345993858,0.3358050476801281,0.3435559029923543,0.07739122282299374,0.9428580820684985,0.4065864988289363,0.13583032453731025,0.07457310244247034
31,0.04157127858486377,0.47573611026440304,0.15084458739752857,0.30051252679203955,0.42133861857183413,0.1751158477319798,0.9420354018775822,0.4295296165197622,0.10942770147945739,0.055793280140206764
32,0.06500845003721499,0.45240584519677784,0.2065332986605291,0.2851079912188261,0.45202415213272734,0.08594430027513239,0.9109454109981753,0.45138903643653044,0.2345469277302122,0.04341176381042198
33,0.09482924472914266,0.42380430854816376,0.2604709992598492,0.32056286663220995,0.4332108933218028,0.24396265810418652,0.8609806207191298,0.4666763480344172,0.15473313722548548,0.05809890502505796
34,0.12656446271650562,0.3840087298546361,0.3135478514828407,0.39548580705166647,0.4223913429940216,0.4131384120932656,0.8007871287527343,0.4715809007489159,0.020742060319498695,0.12916990957642213
35,0.159137406622247,0.32911353767665963,0.38179314001986353,0.44780531310443855,0.4399065894922841,0.3821754517779167,0.7414049412149254,0.4711559206933091,0.3138602687765476,0.23040657160084368
36,0.21855145290950476,0.26772857919447973,0.5058434565842593,0.4042083432186913,0.4352996528714062,0.5535725055224656,0.6761431259298715,0.47571140773135506,0.0792763497627737,0.6447747758994354
37,0.2535621043026377,0.26216104279178765,0.5806247040793712,0.25177297676228866,0.4124693883039645,0.5311792685084418,0.6072230257543408,0.49691320271622236,0.29115031920699475,0.7082704615501128
38,0.246037199702082,0.2893056311857216,0.5826055316326599,0.056924923305654025,0.4083676021370633,0.4108145082067504,0.5475080886632806,0.5331171535616406,0.04059555560678555,0.4925330569133026
39,0.2517814334906492,0.29443459731774585,0.6039266553421727,0.0,0.4477497171138662,0.30060910479916186,0.47262002008124937,0.5764371724722186,0.12504595057933512,0.2603452953769543
40,0.287707262287762,0.2709343476903821,0.6665906169487106,0.0505438211971312,0.49672721550475984,0.3417514477540122,0.37785633500025967,0.6220776547578486,0.026166815344173335,0.4882982890486881
41,0.33885559821842376,0.22562374614094768,0.7354714227310792,0.15272486528903378,0.5390735213789805,0.32805999221274834,0.29242507385768635,0.6631973730253065,0.07932369630774112,0.3586507961402159
42,0.41928729336994564,0.17029477672783813,0.8153577765025384,0.26401139570093524,0.571824516013175,0.38099443092358737,0.22613322398250454,0.6957153620875509,0.020709817271216038,0.27249137429403897
43,0.4721301495803051,0.11979634814968605,0.8579716488902557,0.32634247635645747,0.588222052434372,0.37761701100514816,0.18168667466418145,0.7209566352435914,0.051440996654112135,0.4434125797900573
44,0.4923145425994473,0.10818656322328539,0.8739008907312584,0.31171425982084966,0.6071174584957781,0.3001341276541685,0.1801987015486421,0.7449602081633214,0.28060532255450854,0.2629267550368395
45,0.5040024458501567,0.14408317103892732,0.881903692760065,0.24100652216278243,0.6502828140894443,0.5211042187336676,0.2323169267958771,0.7735884024805741,0.04357856669349099,0.2650097030946433
46,0.4993892115363609,0.17226540130975823,0.8789549845432306,0.15137052084271146,0.6785475319751753,0.5321231059710165,0.3169467559413448,0.8057647653957198,0.21708644095764834,0.32735925878550204
47,0.48289459727526546,0.17969896958552165,0.8677562359733162,0.08455674020258346,0.6831284809337669,0.29068529631955187,0.39340128466549773,0.8374560369707411,0.07888167406876101,0.19549281757895595
48,0.4581712056403044,0.17433692251361085,0.8494535062192934,0.09964961720632379,0.6866859189350745,0.15967052153450842,0.4389954763348421,0.8640266892499325,0.10630716879236944,0.24832508571526424
49,0.427061208612029,0.17286534430324504,0.8219674896780372,0.17514874890085483,0.6656626942793193,0.279899156541722,0.4595583670255404,0.882118148736937,0.10946253098383316,0.32967389518005435
50,0.3886043875167008,0.17723097373462113,0.777070470469629,0.2957776766693992,0.576552040720885,0.41253108872125266,0.47098563279083966,0.8899454362976336,0.0642399069792139,0.31761543759417926
51,0.35705110696796566,0.17112026039038844,0.7258491575183013,0.4054099917581358,0.4770542742899674,0.47422204829659065,0.48746417597279246,0.8879403667059304,0.32778372114842025,0.448971156399305
52,0.3408760016331575,0.17294539045874577,0.6960637202413382,0.39632458034146445,0.43112482486754133,0.20689988159927417,0.5075970450513887,0.8835117253208168,0.16448320306218,0.28054269405696
53,0.3337192014237053,0.18674024102449302,0.6862365706113145,0.29826035229241826,0.4001121751101328,0.32457236537990336,0.5320279973747764,0.8833524204267137,0.27316249712438373,0.19137242783498995
54,0.3435116252122292,0.1824715268747668,0.6978705420879234,0.17329808121830945,0.36897511957050927,0.5695530659942923,0.5594955155177929,0.8907603268188008,0.1996913938128895,0.4316850335828988
55,0.3461791043140932,0.17450496439755475,0.6993301870808462,0.13483132486540392,0.3636781503705756,0.3658156398787763,0.5843843218838557,0.902665227141307,0.10892551003646975,0.22333801521215269
56,0.34227450303088147,0.16809432740594055,0.6935744371637856,0.20855885732559173,0.36136396362233103,0.25533747776360527,0.6009854298212356,0.9147594436205625,0.12033860847890183,0.2837626579598543
57,0.32725516025859275,0.15913585729608892,0.661962983166117,0.32174998324265686,0.29569075421252683,0.40219594353886806,0.6106667365264957,0.9237960683857187,0.09035435572646848,0.3498788914985872
58,0.3012257360077756,0.14662012034071925,0.61527541602614,0.39240656056154627,0.24801647661879075,0.5017724011152571,0.6193203310699374,0.9290899501334758,0.14208366327046162,0.399407143061091
59,0.29259482235186657,0.15532122845549365,0.6029673289160065,0.39348932389417285,0.26561757056930996,0.3465232926782864,0.6177578705830713,0.9366701741779876,0.10111962928663179,0.3868244059636953
60,0.3288540162498793,0.1669357495179549,0.656565468019332,0.34879933771647503,0.32466686180957405,0.31815286626932865,0.5997095220793643,0.9501936023249287,0.04581251980341339,0.340686985954383
61,0.3631940715124985,0.1737846897107736,0.6943086410989052,0.32791779661136344,0.3215260124450413,0.27415374479311094,0.5892978075866921,0.9653081907393025,0.08736168978246597,0.30231901227693675
62,0.37159465015932724,0.18536380582266365,0.6960305464914995,0.3195747265987057,0.29826101693799273,0.34039783798103224,0.5958935241127583,0.9794629800106106,0.12613368677748907,0.4533537167622595
63,0.3555647059606623,0.20967176142634295,0.6703897415450696,0.2934338886919869,0.27314227395444685,0.4066960031161598,0.5918799661606653,0.9898981234427254,0.030040902539073797,0.3489293746026011
64,0.35151063011935485,0.25827600560237085,0.6615711573661301,0.31530194130244016,0.2492201863529446,0.46006965081036333,0.5590665661581478,0.9933055323281926,0.19500216362819636,0.16423124522630425
65,0.3642219002923519,0.3041237925266943,0.6713978897162819,0.375999149094788,0.23807611273614598,0.30829317812525814,0.5093648112224237,0.9928022542270668,0.138007864300731,0.13064366508806033
66,0.3959480749984924,0.295563076500016,0.7100313294031733,0.4453112626345133,0.26266268748748,0.17653916960802293,0.4660739407118615,0.9924096987228007,0.3974498773678412,0.17616633504100118
67,0.4605749256670256,0.2374578215692626,0.7893896154963749,0.4893778329967419,0.326650011807769,0.4810216192603406,0.4389993052019312,0.9935697097472315,0.23465855027593555,0.4547256087780212
68,0.529996867172732,0.17033403657210094,0.870836387349891,0.4930350414718751,0.406182357163802,0.686346469457669,0.42490580099743874,0.9970489186568141,0.1837166703979622,0.6447993426574415
69,0.5759055657681004,0.1396939513604163,0.9205571618808214,0.4758322938533401,0.472849698579108,0.5524046074278258,0.4222504271197809,0.9999844446773222,0.266862428465973,0.5222983364680918
70,0.6021315416388922,0.11071369641319603,0.948726265572854,0.4805454767931005,0.5100464141321478,0.3945614091685661,0.4273797483283553,0.9979664995695451,0.15851707205881796,0.3284347741363035
71,0.6139363995126196,0.08309661403288998,0.9632229856126264,0.5278263942669523,0.5429994817653375,0.48907060558394433,0.42696940956877333,0.9885085390722447,0.013673922347645555,0.3764031172981699
72,0.599046405880501,0.1013116714814217,0.9528494079899689,0.5871525604317657,0.5514948536026636,0.4935141451792318,0.42725957199776576,0.9729143380148594,0.3489774173855456,0.3889880615816612
73,0.6141487669289342,0.09784947768549729,0.954934555511305,0.5949318606683616,0.5391280574160396,0.17915362261280665,0.42802182979850556,0.9562421138817214,0.17105023694489066,0.10436687509070611
74,0.6682284870690675,0.056568712218331374,0.9814428853120195,0.5544140210928463,0.5278986438068661,0.30947323537444965,0.41717089631470855,0.9417746120967643,0.18733457128353517,0.24474060905479142
75,0.7271233772401536,0.03464423249574267,0.9854318722502249,0.5342825968665426,0.5616746483703714,0.21269005961311607,0.39818910031012694,0.9276406278075481,0.08892711339955336,0.17186581076488253
76,0.7709072461265635,0.03210250545411835,0.9670369236444483,0.563273051107348,0.5780147912800995,0.23737172214856614,0.3796296289034302,0.9107592437320432,0.20941004695284277,0.11730272541740368
77,0.8068598121251274,0.10208933263449853,0.9562811176588644,0.6417719141454485,0.5727164255319702,0.3856182532457378,0.36450294832654245,0.8900359483473665,0.2234452745359268,0.015282703937717204
78,0.8709861495868243,0.20808211560386305,0.9441493312947316,0.7330816687128651,0.5453419913396232,0.5888666830581699,0.34955211265416425,0.8648678138647734,0.1076951978344288,0.14711359584674782
79,0.9312461387548265,0.2833082329645691,0.940900807489728,0.7753072609491389,0.5107508446444172,0.6201186542553768,0.33983479384020243,0.8379036587404645,0.023778354099255418,0.5780808417798033
80,0.8654225226608807,0.34122168707590106,0.9598231978539535,0.7495182801155256,0.4783898717772551,0.7317654979211521,0.3466286993389256,0.811365094928538,0.08602329209690855,0.9293391966572044
81,0.7569847804647137,0.39530922233991456,0.998041861347888,0.6886511283255199,0.4582169966774949,0.6087663852262831,0.3694648383584371,0.7858429846216118,0.3409862541498732,0.77194582362954
82,0.6859281064207672,0.45055923090647726,0.9592846981788922,0.6544984787861684,0.4338941008562859,0.30271181808926323,0.39812094350467203,0.7599161658570353,0.016917901306695605,0.2625663633026344
83,0.6612622865348442,0.500806318916516,0.9444641689582994,0.6804211414596938,0.4097321937905014,0.2526666689429886,0.42051582038424884,0.7327491714395875,0.001225310776965084,0.14278109660551433
84,0.6786907260540118,0.5178360315019508,0.956294261974838,0.7507735353758043,0.40555277806431195,0.2503223211098887,0.4292920265272863,0.7047396407405799,0.11432692044712404,0.25764614556685717
85,0.7486016042005766,0.4749047800446779,0.996914579773165,0.8031991339003877,0.4343944311159425,0.35706916410844153,0.4201511932418995,0.6778162342336627,0.3505274649860259,0.4662858344180684
86,0.8529937271130229,0.37138841867378314,0.9579458557089687,0.8128702745066633,0.4959136845190298,0.6954041690326732,0.3987237663715638,0.6538191258524116,0.2340933300013274,0.7170429294592794
87,0.885875274620831,0.24556408828317136,0.9402381670526897,0.7878475210812393,0.5688447730212104,0.8883073776023357,0.3860847127804542,0.6335011840285303,0.1618460296677835,0.7807532144009945
88,0.8154277848311239,0.16005703908217028,0.9496204963389584,0.7567879473907059,0.6249394538558877,0.7070691805459404,0.3898575726825618,0.6163071986573867,0.5401219610820706,0.5379396231913621
89,0.777324877203115,0.14139877492638547,0.9554240248013849,0.7490481665213331,0.6516358228406927,0.2189944192061424,0.3988865690481491,0.6001065918754639,0.027914058685027374,0.14346793355329307
90,0.7554130935899525,0.18189779276765078,0.960178511665124,0.7747802108198097,0.6583174589956665,0.18380330821781848,0.4044274312902765,0.5828653032693738,0.03683087142892742,0.05968399907422341
91,0.7311581825986457,0.21617436051612032,0.9719783518909291,0.7960846617129983,0.6302249779016441,0.1465448710365793,0.4101921892909613,0.5648673570952739,0.12642721506623508,0.07208972897094217
92,0.762724861289067,0.17210097037941863,0.9586769300450461,0.7601852565649799,0.6079859910221004,0.28958608394889046,0.4097220975076405,0.5487608388645433,0.3885731891798705,0.3214239229367812
93,0.8106761911529891,0.07846858347529619,0.9410656330392436,0.6584673847064394,0.5950361021383603,0.6618527418649077,0.3994960084866811,0.5367866844553357,0.07770337246414172,0.6849945153159922
94,0.8530169547347097,0.05913964645371346,0.9300811576836989,0.573639722838999,0.6063050086352878,0.595946143848088,0.3905668298441814,0.5288619285209363,0.3236293619444782,0.5725271130365437
95,0.8669819598430085,0.08766705021783137,0.9297932345718875,0.5355143392203574,0.6171072107920232,0.3269250486971692,0.38593314301386067,0.5228743002395531,0.0004912675531360051,0.3591195036647996
96,0.8443945718420156,0.12111209278942667,0.9419296110146139,0.5502142317766835,0.6006916002675742,0.28894954645203397,0.3878473590609027,0.5166378133102456,0.19773648496833096,0.2959081515266542
97,0.7943556201087996,0.18242230453339414,0.9682881373412117,0.6036189490930874,0.5605202294966091,0.4310184502012128,0.3993647208278118,0.5087974684641298,0.0194540435756866,0.33485109705450194
98,0.7276547378930922,0.27942500628029826,0.9924659590557412,0.6455881158459001,0.5443386734517706,0.47060950579097877,0.4219868799253561,0.5002233003911244,0.07669651645977513,0.4976225249046756
99,0.6523146252665784,0.3688777691600068,0.9398432116536612,0.6280005451642984,0.5413708841231063,0.48145707760550704,0.45582387967247673,0.4930152312530689,0.0870035659436995,0.6095588474370528
100,0.5823456270407608,0.4401568621774095,0.8784000023132167,0.5348441549357478,0.4865429576459395,0.5364183654951584,0.49105636066949565,0.4893273867440422,0.27061464504213373,0.7134354364965647
