Frame,Center of Mass distance,Symmetry,Grounding,Arm fold,Leg fold,Kinetic Energy,Potential energy,Bone length coherence,Torque,Center velocity
1,0.6724299226272162,0.14044560937741749,0.9828899237185058,0.7386756218341113,0.9332160008956655,0.26138814327750287,0.19161625386140244,0.48433982040848705,0.04049132495517395,0.24642262804708895
2,0.7097476263914505,0.1403419893803078,0.9869242600150921,0.7166586332838694,0.9412229657034722,0.26138814327750287,0.19161625386140244,0.4545902746141718,0.04049132495517395,0.24642262804708895
3,0.7540195105706822,0.14494657551625484,0.9910790971636542,0.6748440695151433,0.9443739063387929,0.3011010740145624,0.189433657383395,0.4258887470434951,0.05488540238321194,0.27163038606710177
4,0.8033529986479369,0.15591437035026767,0.9947894457955471,0.5974865698382246,0.9407287441130888,0.3412979200940896,0.18786225174070584,0.3978775487959832,0.19223257696759216,0.32340863787359503
5,0.8619415188746634,0.17344478114406384,0.9979548465711593,0.5123030530175745,0.9313059296875595,0.4298956842630606,0.1854253541548705,0.3696178342978202,0.2735445203866728,0.4185354212268442
6,0.9306868252244412,0.19835766740443436,0.9999999872323118,0.45588326370525556,0.9154908185261877,0.5525488398110594,0.18122802098849064,0.33960336922251355,0.2574837460005536,0.5492931295993062
7,0.9576989246692929,0.2309653650132252,0.9999208786495898,0.4431102852526104,0.8926188976769008,0.6744783109755857,0.17940920883748432,0.30733283505368475,0.17529953139685914,0.6830312893955968
8,0.8659002176106467,0.2703690701668161,0.9960344366289133,0.48037667698315173,0.8529263779936712,0.7766339579366905,0.18441756716838278,0.27340274800242165,0.06419719608223938,0.7077226955392832
9,0.7549128745604007,0.3089703422700954,0.9870584072234762,0.5584407822595496,0.7867109334100605,0.8080683688495587,0.19960678499395296,0.24204595415096786,0.25661226819209043,0.7163618528635785
10,0.6476386217620157,0.3348686431375852,0.9737526054585439,0.6636543732067586,0.7055597868789208,0.7661269814310667,0.22381594532528962,0.21441070964973694,0.34664318745421707,0.7027813599006795
11,0.5597936735957246,0.3522372586371186,0.959276741931595,0.7717437400332154,0.6353258077777512,0.6442638257414818,0.249446806651591,0.19144421516220905,0.38396332290086593,0.6445501854098958
12,0.4933379599275082,0.36832225363886206,0.9460178211918149,0.8415213128770306,0.5814530694422656,0.49849853442018516,0.26908357577845177,0.1746509321639144,0.32829850936260907,0.5483545616611548
13,0.4445711663826208,0.38879674392773633,0.9349307356988833,0.8613218850126159,0.5448804888729759,0.36550931668710407,0.28226945581132473,0.1648780652932491,0.48497651045822326,0.4657670283334491
14,0.41336478376416486,0.4080212158070932,0.9272910924658578,0.8605173434657857,0.5248427521339044,0.2228138976867536,0.2909519046045118,0.16051240279547113,0.5354755983030997,0.33421016412461285
15,0.3991203165062136,0.41935160968302965,0.9236858862405362,0.8581085980802166,0.5173015790148922,0.08838828771239354,0.2936701884742499,0.15952028363516468,0.12345455878056993,0.20373985482145596
16,0.3917402430137185,0.43204663188131226,0.9214997500150159,0.8499895545907256,0.5133487028884949,0.04826723766186797,0.29668873259574324,0.16029295805846488,0.16244911319938832,0.13649864175771587
17,0.38909276286521666,0.4483879212187722,0.9203785835004998,0.8536166293748723,0.5129190777878301,0.10220511132594085,0.30381733805891176,0.16300544641524126,0.07179012055269025,0.19491704534268514
18,0.3912389110010175,0.46410682666508035,0.920549288844502,0.8610986506104248,0.5172486718183288,0.13116185315934445,0.3114189972065772,0.16667723433664075,0.07478483329679934,0.24060627573522686
19,0.39815342711165,0.47852232445367654,0.921879682705428,0.8676649349245412,0.5227150646422768,0.15878912425418287,0.31898384287125364,0.17042663298399063,0.17134355491312744,0.2847939435483708
20,0.41216765170326397,0.4900260162305182,0.9249081667169274,0.8711155535248329,0.5278479382788142,0.19911877403224237,0.3238510833608689,0.1728002119778599,0.26847613251351576,0.311564979327991
21,0.435073352636576,0.49724515235825967,0.9298895903615946,0.8608816373650914,0.5330541212473454,0.26587601041160547,0.3236145772170804,0.17272841673692288,0.36658801439314587,0.3628411607562986
22,0.464360876239917,0.5046279491865985,0.9359828647424181,0.834595517726622,0.5376740966507951,0.36091040432765603,0.3189368342117996,0.16953359604505625,0.38862860548629474,0.4442027098637866
23,0.5007055951821272,0.5121378298666464,0.9429013156637032,0.7941308967593417,0.541464313833752,0.46783240411771115,0.31003117793178475,0.1628450698380321,0.4466398995212354,0.5502663740998083
24,0.544642062615034,0.5150237813027899,0.9505487136527687,0.7460777908392048,0.5445836203616615,0.585884769961478,0.29678791810585803,0.15286139416663244,0.14279155962884937,0.6416416739503581
25,0.584248930139663,0.5124866963222593,0.956592891363857,0.7019861717425133,0.5406429552049334,0.6319799708629747,0.282803975630274,0.14075881874747617,0.015168315812097405,0.7401712794577706
26,0.6224295028496296,0.49851708422734964,0.9616327778121782,0.667983316141796,0.5236632266671222,0.6296088892493911,0.2692034868276204,0.12796962437244291,0.21072594372070175,0.785136225810178
27,0.6537403215614939,0.48244132889631186,0.9646432848892206,0.6491821525651901,0.500779205813035,0.5802434480372984,0.2555056958698364,0.11555767928157305,0.2045248268671136,0.7700642807544829
28,0.6766720816323532,0.4673621852944953,0.9662571301900843,0.64465520828882,0.4756814251725921,0.5192333822946525,0.24366985103271022,0.10314792345181965,0.3086351786377068,0.7315690998445187
29,0.6895422122043541,0.4594192933580688,0.9668987103635157,0.6543424603787795,0.45418409893045153,0.42763234361172275,0.2330099455987364,0.09033106829291468,0.04618655286647273,0.6359816770540869
30,0.7052324169937737,0.4515392634760102,0.9684147651693789,0.6769699354565776,0.4387249643631787,0.4174397131951411,0.2201204416327761,0.07658913885081613,0.31843719073051024,0.5808822310125957
31,0.7187444843672761,0.44477347034220355,0.9699947715347942,0.7063833055906135,0.43045436096087386,0.324327720217886,0.20494635876306652,0.06226068866251255,0.03309066861459553,0.47670110358132867
32,0.7375923802890931,0.42922947743527695,0.972437771465257,0.7286622503557229,0.43141770310443905,0.3157349767257389,0.18880340498487996,0.04763993976042994,0.22220335494154622,0.45748650891578774
33,0.7597077254666962,0.40000739579986383,0.9754543715649026,0.7242214046260388,0.44279687757094144,0.2625435163864533,0.17158779357580395,0.03402700255166234,0.12921047953390646,0.35238419833435186
34,0.7836496709392345,0.3558996087487382,0.9789306675599452,0.6964268329634856,0.4646823397284562,0.2931609655415746,0.1549648167167619,0.022780113352556718,0.3207187372489845,0.2735603821429476
35,0.806063904486207,0.3022445980251668,0.9824214156003357,0.6539867852815449,0.49651372715285746,0.3718330185965092,0.14056620088264563,0.015532774293004774,0.16416220448273336,0.17907548222790132
36,0.8224358310261234,0.24913392473032864,0.9854923997033801,0.6056834643822653,0.5359825544989171,0.4332984545532724,0.13020655559155025,0.012640098295700852,0.0753280980013187,0.17524030823053702
37,0.8296884851260782,0.21041042831521214,0.988048196085337,0.5489990052433463,0.5818078430419079,0.47842938343594743,0.12434100956594454,0.014508125094035516,0.018551767234141838,0.19573656969455736
38,0.8288355519872448,0.18724486849946181,0.9902380586222013,0.4885726042200483,0.6336546600614006,0.47997209033870264,0.12110638133982579,0.02061222252941425,0.089986104460252,0.2510862477904026
39,0.8173836562555313,0.1701750014051684,0.9918001887642771,0.4274600578796329,0.692553748284844,0.45136111598945106,0.11910385139973605,0.030002879106282868,0.11234725449301915,0.272528167577535
40,0.7952427032734927,0.15746280384094138,0.992456120271939,0.37107319311111786,0.7567893047774252,0.4153426243880375,0.11926487292971191,0.04128175291908042,0.1592278084125102,0.3089719896435089
41,0.7649434216709973,0.14587542634334946,0.9917622206730153,0.33732491458697866,0.8160587739167185,0.3602440605420177,0.12198517341170095,0.052523815253633206,0.04362666401662554,0.29035785860388275
42,0.7301322939701205,0.13923286467758528,0.9895413391119903,0.3313325819160195,0.8384881902072658,0.361174215728176,0.12695188016458092,0.062065908026329934,0.05667095360973871,0.3269951147313756
43,0.6915578767585722,0.13812616007141043,0.9854565969011425,0.32032991075476125,0.8068722769815533,0.4274607445745967,0.13578750563925784,0.06865873001310528,0.17179432617358675,0.4221522191207112
44,0.650108162920962,0.1412520228675763,0.9790562039677911,0.3488741921556169,0.7597243563992464,0.5582174716057734,0.14924360391317973,0.07142119886744722,0.15006195014998652,0.5972075709341624
45,0.6063035354167972,0.14865558209837942,0.9703631224467046,0.42654391905982075,0.7312946403959956,0.6497205395210259,0.16653974765452428,0.07082117308800845,0.05781077263531362,0.6974664493898126
46,0.556454853255597,0.16328637930733156,0.9599353422838679,0.5415539294701406,0.7385330764401732,0.6528155048462054,0.18849192973111745,0.06862541226237856,0.0636701315715944,0.6823561600808192
47,0.5033620517004406,0.18567128095090188,0.9477977894808388,0.6657224316188731,0.7538616420704705,0.601309328791731,0.21640422025318848,0.0659120401844811,0.2634142835214357,0.6112031818414395
48,0.45938617994045355,0.20860807689917144,0.9366896553643694,0.7690713262568772,0.7698019892423995,0.475692145808853,0.24493044905817435,0.06311076095641882,0.30656597895844273,0.5005905348259251
49,0.42654771223681254,0.22788944246633575,0.9275327487920723,0.8293461628528559,0.7826032934253402,0.3565419417109276,0.26692737625899926,0.05977620816404922,0.31285132588010356,0.40189769974418615
50,0.40399673919733203,0.24204317362844324,0.9206797349193214,0.8477484008325794,0.7892306217651558,0.24731763679847543,0.28149477897545006,0.055649463705467535,0.40746517885160954,0.33547376247203897
51,0.3957837011046165,0.2467999386448223,0.9178366600749654,0.8498043347503241,0.7926547967966803,0.11015931719813785,0.2882277930831965,0.05091195981248966,0.23597942890757106,0.21837631125387935
52,0.38677589076657065,0.2534350518821096,0.9152055065994099,0.8501814402670964,0.792482777454747,0.03280995026676177,0.29240121166211236,0.045817104589573034,0.018444941526809894,0.13543913194610796
53,0.3895970123852566,0.2510789860949845,0.9163429127816078,0.844365986906982,0.7870692116048651,0.016906273742323945,0.2988444858646443,0.04098224733457977,0.2046614200235015,0.07628706147627677
54,0.3982901836397152,0.24385107835349537,0.9193483591250006,0.839778236803193,0.7793623514093952,0.096395196465687,0.303538954958545,0.03641202369174772,0.20617226186053522,0.15482198606208072
55,0.4146539559587455,0.23006229785883328,0.924624161365844,0.8403321268504672,0.7711625238809281,0.1803321205840186,0.30361916378183834,0.03175887559422344,0.306928347076348,0.20311271236622314
56,0.44309912080381075,0.20647245055352123,0.9328686755700066,0.849411394852462,0.7646612510021722,0.30147649390025916,0.2970326016809604,0.02676854548105007,0.29209081791718855,0.28899431264151687
57,0.48229811255112087,0.17469304664264704,0.9433166483118831,0.8650846861741369,0.7616073424504821,0.4213404129029509,0.28320608834086913,0.021394706274590815,0.2141480437726192,0.3926559430127256
58,0.5316184957326352,0.13996319423811707,0.9552109837663781,0.8781263972271173,0.761053432548498,0.52278873606532,0.2654416496631708,0.016307001298313136,0.039785301785431826,0.5341858388199093
59,0.5842866593435577,0.11323157293285686,0.9664530133134379,0.8859566856321588,0.7837322496408075,0.5608545117972437,0.24713071395773847,0.012061152958045085,0.07325123384377379,0.5870174129673124
60,0.6480737499604655,0.09165911869788265,0.9773344970601862,0.9019560417245573,0.8217726948236717,0.6224889388235342,0.22861972934878658,0.008476375346190267,0.06169597940082652,0.6098821055840121
61,0.707830635237033,0.08993181839938344,0.9849975052724498,0.9260169865576022,0.8509797059612804,0.5764427724767309,0.21195166844547414,0.005185159403136635,0.1155969523028905,0.558919991044067
62,0.7583984021003364,0.10643964279461228,0.9900261120756214,0.9501271953433018,0.8479111310228545,0.5252494196813783,0.20147293885970446,0.0024217521168450546,0.10134406797815322,0.5230139194077126
63,0.8015188957085752,0.13161423520475396,0.9932510834771788,0.9690637299420307,0.8014072628252122,0.5069707808716561,0.1957324910223455,0.000627611094906229,0.2131334147113168,0.5625646884211127
64,0.8261577585430778,0.15779074827819883,0.9944266843506526,0.9762553988419522,0.7619010223614413,0.43094491589731954,0.1930455410864923,0.0,0.11211994466591517,0.5100433582567856
65,0.8383555630998313,0.18397881521143156,0.9943732571028691,0.9585452006844857,0.729127306862131,0.3930513499014838,0.19360545741671067,0.0007016561165546425,0.023892606874543337,0.4715597793820567
66,0.8413114557968745,0.21211974761217073,0.9935617269188161,0.9104872682433612,0.6999152981746808,0.38149999971239823,0.19523075184922858,0.002769142265678105,0.1333001160004015,0.4400049001166492
67,0.8348879491538659,0.24867873598909904,0.9919718508638947,0.8406240235103248,0.675941582078843,0.4262528256350115,0.19618911289106716,0.006218250372780033,0.2587983783431382,0.4776286851560417
68,0.8163294806782715,0.2961421245400343,0.989447375639451,0.763924202144429,0.6545760409399665,0.5149862309721898,0.19636378910727767,0.010954592302063757,0.27285365238742165,0.5732620619378682
69,0.777657484368665,0.3548087139356069,0.9848703071311666,0.695322001714892,0.632326851498474,0.6128131418066856,0.19825041439488314,0.016871697867707116,0.22778707776347107,0.6620057507509121
70,0.7220070455675685,0.42393103919748065,0.9775333008059446,0.6405557413147847,0.6070297204655142,0.6944241416256955,0.2047200180687396,0.023746627193228086,0.26172134103050154,0.7401413485897538
71,0.6494721263665114,0.5041074171185659,0.9661308384488578,0.5989993938600408,0.5769868758821265,0.7855107213463828,0.218227700681756,0.03138096481537509,0.04197584118346251,0.8215343988695455
72,0.5710845892565662,0.5876591914297534,0.9510034747034132,0.569562865132431,0.5423081388397241,0.7987644386686465,0.2405338391236445,0.03941196828404654,0.07254762481376764,0.82556584095799
73,0.48749969686310896,0.6764276012444723,0.9314109325011214,0.5432536386250283,0.5004111510433943,0.8331960126933526,0.27355717973660615,0.04808752170464051,0.08681824202650858,0.8122535041296759
74,0.40628943978927806,0.7625259877643272,0.9091702921777708,0.5390644441639708,0.46157935676446515,0.8151536624692922,0.31697255534631896,0.05756388346042338,0.37469147933293345,0.7867714877690253
75,0.3344509608348658,0.8405193681747515,0.8864138095110694,0.5616639507473293,0.4248375388617631,0.7367637266983236,0.36560969247472264,0.06810875925147761,0.7064632512194682,0.7149858374133508
76,0.27661660700807184,0.9028471399208672,0.8659798259228552,0.5791133273254268,0.39159020903124653,0.5928972778554519,0.4140205215030444,0.079717268426026,0.7330206887425705,0.5602300603334746
77,0.23164191549230545,0.950197458548554,0.8485488967889954,0.5843655136541482,0.3638177944333319,0.45019337224937744,0.4583429000905033,0.09227648452686689,0.8018540930624315,0.43380495859533347
78,0.1994904152421595,0.9811359873123116,0.8352714452036126,0.5734496680593923,0.34396864156221363,0.29439105161512225,0.4969625060199185,0.10540580097059793,0.7144422593348416,0.29036895516638506
79,0.17812567787273118,0.9982642229792732,0.8261101073421495,0.5467765475900325,0.33279457281205865,0.15984029239912265,0.5298158738259946,0.11868445381010784,0.7718338953534064,0.1703532656748341
80,0.16977738114376148,0.9999999937193902,0.8225348123186973,0.5248878076406351,0.32969128700514905,0.028954203426767414,0.5522594505888244,0.13177584894960917,0.4644167482678818,0.07086071124501729
81,0.17050311054811207,0.9889232292111801,0.8232087962941539,0.5862773511307158,0.3331316012244997,0.0011904454746385058,0.5623405288434531,0.14441447552311995,0.3722666942969894,0.0
82,0.17845794186384176,0.9685202721641953,0.8270115725540458,0.6583936550106757,0.3399501327888076,0.06529212861115827,0.5627670191181293,0.1563820041752964,0.4972109188977633,0.04945092076004003
83,0.19514526116520473,0.9385471655310819,0.8344937539550078,0.7299960518244758,0.35226647487877455,0.15784050104184402,0.5523710497891333,0.16748424361745468,0.5660088132783161,0.13067012232512187
84,0.22221769632823815,0.8993421631013445,0.8459916904513949,0.7909470808028068,0.37268700897594,0.26966869489065504,0.5297158628319721,0.17762882278433717,0.7312119999683576,0.23024345579320116
85,0.2649097322251444,0.8484046180739623,0.8629544136004367,0.8336536488639075,0.40486256786718694,0.4139111857935001,0.4926624506127422,0.18655348043157893,0.6575852916572282,0.3451948249515704
86,0.320144561890138,0.7855217200269112,0.8828608723556811,0.8664801891146368,0.4453893101099882,0.5533834544902022,0.4443842425991028,0.19395358443302788,0.9999999998575829,0.4907084885783231
87,0.39560811650514943,0.7030932033217536,0.9067895820734233,0.8932834851819649,0.4892477268396992,0.7547322656459623,0.39054695741118145,0.19946779401891282,0.23514336108552136,0.6908365064402445
88,0.4767137811047437,0.616010662297737,0.9293550157504066,0.9016527346240611,0.5267620689246302,0.7936219267415149,0.3385107582456861,0.2031277857823263,0.05896048351543874,0.8178099745026732
89,0.5588741193842579,0.5306220800534992,0.9487738312751737,0.9026822751156971,0.5586197690759936,0.7762520857373045,0.2933627560444041,0.20545326482526052,0.2430445796095876,0.8478808386096214
90,0.6369276270213016,0.4526734093400341,0.9639288402223463,0.9023410775978513,0.5822634855087541,0.7135887640837439,0.25473376030133804,0.2068333250585254,0.48772462652282533,0.7882671707050826
91,0.704065351268564,0.3898121252633699,0.9744791858150655,0.9027269360768992,0.6028548004177533,0.5819162286020514,0.22423141045506936,0.20750595940086503,0.49259054094678906,0.637115243113691
92,0.7573934320148331,0.341894452282938,0.9812612235278249,0.9034184218214596,0.6160290783044803,0.4555473887963421,0.19957046160230882,0.2076893382014072,0.2831079857546224,0.5069572803636779
93,0.8016011568583059,0.30423874495920106,0.985999580890634,0.9026241387331961,0.630509023890377,0.37875174373517323,0.17659027830473098,0.20763010858852338,0.0190740279243318,0.41929815264204673
94,0.8448637683429758,0.2694464232626997,0.9900288312757913,0.9035263266726631,0.6502218633934106,0.381171821244818,0.15482662497198424,0.20730353359457937,0.01496251684873261,0.41128919897381877
95,0.8852062128782252,0.23413284538082973,0.9933528520613171,0.9073447259276344,0.6754869862074118,0.39825660447749317,0.13725860021372296,0.2065783036322879,0.06834843091911226,0.4783376562145009
96,0.9105922650615539,0.2042344304563948,0.995247177824155,0.9101384400585412,0.7027851486030929,0.3694078648838539,0.12444313676795091,0.2056167704458114,0.19308931969189286,0.4331126432581924
97,0.9151066825431149,0.17624150929584761,0.996185251527228,0.9051073839048711,0.7305177196134665,0.30386794819349067,0.11620960637367017,0.20442689045277218,0.08966049386276904,0.38248440469444245
98,0.9052918283797023,0.14921335308682346,0.9966718372909724,0.8879525798520873,0.7617319641575294,0.26899420217555847,0.11110971742161463,0.20309069605093227,0.023699834226618068,0.3462299821135442
99,0.8844762588375342,0.12709567014646153,0.9966313514217754,0.8516994139241275,0.7974218542811269,0.2594658843932463,0.10590750130789552,0.20184911121803736,0.004730425473983077,0.2670781162431954
100,0.8609277047586769,0.11342099645237502,0.996364315893975,0.8003371559596077,0.8406384817697494,0.2570353594167614,0.10190538714382365,0.20079993775575322,0.09574077606563249,0.21712025894405404
