Frame,Center of Mass distance,Symmetry,Grounding,Arm fold,Leg fold,Kinetic Energy,Potential energy,Bone length coherence,Torque,Center velocity
1,0.0,0.9999999954641793,0.20841795309514546,0.6916966317952804,0.0,0.10002326764639262,0.9767068157769815,0.9999893732331124,0.11385817354821624,0.07576468304146286
2,0.0033437707507189118,0.9967937035842188,0.20500603839029213,0.709939231139599,0.0034307255199792146,0.10002326764639262,0.9767068157769815,0.9890173718579005,0.11385817354821624,0.07576468304146286
3,0.006939971657025928,0.9932752481965023,0.20133248500402717,0.7338432935084975,0.007117252809512479,0.1266141063757459,0.9657161477181403,0.9724661291595128,0.13466674194143766,0.10197294392884002
4,0.011498942197310055,0.9893319878103319,0.19689526502343477,0.7533535665087838,0.011187067061442008,0.1527583727446848,0.955514770971627,0.9506776442577943,0.09042922372672633,0.11503700709531126
5,0.017783569266231144,0.9842443275705907,0.1908227904055638,0.7637606797661848,0.018118097304624915,0.17134204209253381,0.9435444309960233,0.923023157662494,0.03688456737762729,0.13848906378487622
6,0.026119848341614925,0.9760741276006555,0.1828870094783117,0.7603400895993617,0.025883879048678574,0.18086616489515914,0.9284519427386784,0.8925276596086045,0.05683724239248468,0.16060846265837955
7,0.034905674883485865,0.9655637661591557,0.17473543716763096,0.7492605005785997,0.0319156003716927,0.1794935623122228,0.9113017617379404,0.8607499326158631,0.048081906651572685,0.17067948685985507
8,0.044929481890308855,0.9516210196466777,0.16535477091736653,0.7451411320592662,0.04003186305690799,0.19266197515327518,0.891005574192395,0.8276832160521136,0.16337252408177225,0.17523245541376098
9,0.05666871336829278,0.9332875007930365,0.6860720000161041,0.7518729879685893,0.050991772267105016,0.23428308026340675,0.8655789336201483,0.7954834020268268,0.09112246720919258,0.2505821940573152
10,0.06823363875886224,0.9155615603005641,0.6969515380706015,0.7600763502384885,0.06456531297303242,0.22996339582458453,0.8371471714690373,0.763448038414131,0.10579191060882677,0.22920175824386468
11,0.0816185781577457,0.8961118322988418,0.7091538736995492,0.756962903276738,0.08024121895765227,0.25236471753009426,0.8060579078061451,0.7330413609557401,0.030432313438740453,0.25207098799600147
12,0.09555352330754706,0.8762345787620792,0.7215780793424446,0.7317867382857534,0.09876164517647948,0.25419019293713013,0.7739145957217455,0.704410008469973,0.04862202303560123,0.2515288734379001
13,0.11024088369801645,0.8560965439914046,0.7340874115695168,0.680810913213166,0.11832267021177569,0.26409050530335676,0.7418848131095481,0.6768555526157751,0.04019204334740365,0.2499978238945882
14,0.1244184390780321,0.8390801076136476,0.7451118837508407,0.6035195613628868,0.1347739906056475,0.257929597109438,0.7127438729649885,0.6507208239018935,0.18725445221298734,0.23572896724391043
15,0.13686351873962205,0.8247175947991322,0.7543328314085244,0.5112334000183216,0.14778501562738777,0.22609312970080378,0.689484998931191,0.6264017232537299,0.12532867602905473,0.20318468263432066
16,0.14778934587458295,0.8152127805807955,0.7619110291684167,0.426303210981114,0.1577449098435716,0.20458630635413771,0.671220175841366,0.6042785914268428,0.05805557971528236,0.19112230389303722
17,0.157373047106321,0.8100798298615581,0.7681436860032299,0.39147579732404447,0.16735242649788099,0.19976931421919214,0.6562737246662403,0.5849144580984041,0.35764426785479425,0.21404709012827106
18,0.165030029724513,0.8091764042645857,0.7727978821850642,0.38936624924387714,0.17281210684359258,0.12975997986031154,0.6426203024231498,0.5691210914580696,0.17873912468918407,0.07489749383687722
19,0.16738802025491104,0.8132608754837212,0.7735849875665629,0.39051270289036766,0.1721294115605116,0.10720648298238643,0.6340023574013979,0.5566344760442398,0.03751491648434522,0.08922393701179689
20,0.17036054241892887,0.8179231259113293,0.774349195055979,0.3954709331990498,0.1700792267358546,0.11046599225431285,0.6297129748502238,0.5464869589435898,0.04376586251088874,0.09616355318104325
21,0.16844182446396558,0.8274262341002414,0.7718638336378385,0.39988875342388736,0.1633782921023287,0.12956153484714422,0.6299685636113957,0.5386461347141459,0.21328135338027107,0.1354123032244573
22,0.16717853633349591,0.8372319924632453,0.7692754960975987,0.4077841793395977,0.15646749571640325,0.1684316150355294,0.6330706250794343,0.5330190033780722,0.4348692050579907,0.1620597577974271
23,0.16583873861247758,0.8479936967030891,0.7662018983921888,0.41835916339229434,0.15014275061209661,0.25523032423495706,0.634135957135974,0.5295856957212717,0.3369813774689876,0.24495988368495547
24,0.16356892290273964,0.8601419885821328,0.7619407526413787,0.43111264143950934,0.1428231267817443,0.32423213806954787,0.6369370240872547,0.5285606476025579,0.2579899108700465,0.29605950083193167
25,0.16225009103945048,0.8706370247057015,0.7580408217820946,0.4351131321568553,0.13630489656860556,0.3761503837535828,0.6442654135576622,0.5293562873025417,0.3363422724272428,0.3355778891762929
26,0.15982397327410208,0.8795857828394361,0.7526538157828901,0.4182046058642211,0.12493501937187194,0.4539414365005114,0.6592523008946691,0.5323954096276838,0.1265044201010916,0.42512869549066284
27,0.1547001021942401,0.8860855773593017,0.7451795213938204,0.3585941789141136,0.11346270249078058,0.5052653359933522,0.6838442370568936,0.539107121056765,0.10664709613760967,0.48418004533710307
28,0.14754478290986164,0.891206078591987,0.7361870632756922,0.2817835457020959,0.10642354702785314,0.5387930060399977,0.7160360496534877,0.5498128817268947,0.17484015531900574,0.49016999856783783
29,0.14028482439182838,0.898161438097356,0.72635286937212,0.24056158286611276,0.09877982508914879,0.5061473603081169,0.7509619368439617,0.5646336489580219,0.24639564186043936,0.42192874978539835
30,0.1296575118133567,0.9108839175183397,0.713494840111286,0.231012186014752,0.08759623915675131,0.47287744583939156,0.7878610512461732,0.5846607274347675,0.1819044750243571,0.36330238641441637
31,0.11791853827110566,0.9239708682087964,0.6993128542150976,0.2260369233368196,0.07890966420446022,0.4466374701632881,0.8277649753185591,0.6100131291961077,0.23703233060186651,0.31454008627708196
32,0.10747949565571514,0.9339753076930515,0.6857541340023905,0.21588054730131953,0.07544206159515457,0.39615274529286376,0.8684578141025587,0.6392906702333744,0.1909506475572955,0.23083168259372577
33,0.09938371093522873,0.9398166842874307,0.1665036063285707,0.2075606434146691,0.07151797402500738,0.3523302016947057,0.9087590615773707,0.6706453596810935,0.28849663962809713,0.18314537499373965
34,0.09442013247500425,0.9405589915638805,0.17559777848025823,0.20661522965307527,0.06830679770157548,0.2977116892876043,0.9453120983159194,0.7027398899668059,0.27281268637525846,0.18031408165281204
35,0.0927691082350784,0.9372264093360356,0.18048994274415223,0.21753690624132901,0.0679094479364295,0.24536045066519915,0.9743650976381584,0.7337520923721692,0.2781000809227993,0.20917373635131448
36,0.09369815294007994,0.9315084523344114,0.18244643755022058,0.2338059573891246,0.06970107453096398,0.2020863765030417,0.9923695410077855,0.7627973571136991,0.07978794983208004,0.19582724916031446
37,0.09646098255029183,0.9218256016216343,0.6578900007856661,0.24765758094097334,0.07167373004480142,0.19696109539348972,0.9995871287520189,0.7885283954829986,0.04080313979196406,0.1986476719154258
38,0.10127599320037842,0.9088897822255817,0.6605109465726736,0.25126063847820834,0.07483921546964632,0.19576902772560745,0.9999999712246838,0.809914921285803,0.07837020366127756,0.18618622267882948
39,0.10688440548964477,0.8924923527246694,0.6646588134377925,0.22990087467973222,0.0759224861440047,0.180526944399181,0.9945049015804424,0.8272566497627446,0.25757840760876294,0.1750050879753315
40,0.11589268395111658,0.8697840272628953,0.6723557763049884,0.22815761186083594,0.07887209436249942,0.22889361459135754,0.9814710758775128,0.8403878926654809,0.43368822106241645,0.2063814474534452
41,0.12960528273340463,0.8413999671963651,0.6838805249294175,0.2161082162181786,0.08518953680666551,0.3191495782073671,0.9597983234622872,0.8490305386485689,0.40619487848687696,0.2969165374574471
42,0.1478788024737804,0.8078930407594797,0.6991957375499687,0.1785792191382448,0.09489213462883363,0.4113512163815528,0.9292506980609507,0.8530078887774273,0.38896766295812424,0.3760611675194358
43,0.17285925031811425,0.7687174941561852,0.7197448055889334,0.14330310407814575,0.11037846594780983,0.5022634106210095,0.8867700797393883,0.8528474459237522,0.2512785662930427,0.42742935593973974
44,0.20355115450062244,0.7230755249719825,0.7439085982340542,0.1253676862830533,0.14369548939211885,0.5759980912260891,0.8335791905315186,0.8492916881862158,0.07183901708569657,0.4745429603484432
45,0.23817169319499387,0.6778777349990918,0.7693543637528933,0.11097567746170167,0.18515102943504044,0.5774974987249789,0.7750182204868773,0.8427493840785946,0.1015068381520415,0.43278187525884326
46,0.27430142007434755,0.6340131341152113,0.7934234740006063,0.09985715684410847,0.22450756150228243,0.5673257908408434,0.7171910370994031,0.8335458225106191,0.0609654334573177,0.433946942571355
47,0.3120945256187663,0.5922713929088346,0.8166514923856001,0.09099764290686327,0.24366340022306787,0.5704644740592552,0.6635327954760459,0.8218229723292758,0.07784295452072362,0.5166286627180918
48,0.34755836432432713,0.5514319437543655,0.8368364607592331,0.08477291264002765,0.25268687554452307,0.5363015752795811,0.6163034064106466,0.8075650498318431,0.29418666520958914,0.5414915142782047
49,0.37772202459812304,0.5134263466051102,0.8528505355911199,0.08108394019083733,0.2603397739411765,0.46177938598410523,0.5797713473431259,0.7904233622363588,0.27523015488240965,0.49418378213691594
50,0.4031968544929955,0.47916319566997806,0.8656627433108798,0.08049135964105177,0.26719253535861065,0.3953492857997586,0.5532330517347059,0.7705246486184477,0.20083482178261763,0.4420374853746997
51,0.4248567136844568,0.4486108692547766,0.8760063573602445,0.10996860814514256,0.272678682336531,0.3332324558756308,0.5328346236116135,0.7485451384652594,0.27465417204976067,0.38109905208355616
52,0.4419090708520236,0.4258491793504792,0.8838142037205964,0.10710063280444042,0.2807354463653839,0.2422458442346117,0.5160538063937247,0.7251270357209517,0.1444393889794718,0.24377526286495269
53,0.45813024149888665,0.4088965812226529,0.890992473954767,0.08100466316437194,0.29199513990746245,0.19608034609845515,0.5008787967690512,0.7009228671988735,0.11112187835484273,0.16470826675681208
54,0.47190972459018415,0.40034989382444836,0.8970817678342015,0.0649686741101872,0.30476933501796694,0.1476046193998623,0.4867254244133018,0.6768584305748911,0.01069993031735441,0.11564675205894706
55,0.4843275490397845,0.40086408960075265,0.9026987057598642,0.09195274851364846,0.3241219729779395,0.14490304594529427,0.47444193828520126,0.6538500687657559,0.04251573433460909,0.11977792548797328
56,0.4949709100003004,0.4067704947083772,0.9076785722988329,0.12108868950734847,0.3492930229382742,0.1453714392717698,0.46333538566194327,0.6323305154856436,0.012292809299206408,0.12869125967352918
57,0.5012596606928823,0.41893021845695705,0.9109646902602311,0.14331547876337242,0.37342256085395936,0.17167334857357974,0.452141633067961,0.61277756826093,0.023324915686491993,0.22201776352878758
58,0.5013363642618825,0.4358334109924944,0.9117308037609116,0.1588210589957639,0.3933592986033381,0.18031140663248485,0.4426296736044056,0.5954513193087553,0.11554996225805843,0.26800157848291
59,0.49518530383410997,0.45754599794789974,0.9100549047212639,0.17139777526163574,0.4055148159806995,0.21631074457162505,0.43658458550681356,0.5804691041375634,0.12455509729888257,0.3078359417021914
60,0.4800457503875655,0.48264073298814825,0.9049292798343813,0.18185665359862918,0.4066016750245374,0.2608114670961323,0.43504340901051436,0.5678466404185744,0.16574655781151917,0.3234031682934995
61,0.45628381176556837,0.5094783946087874,0.8960003382537962,0.19240597915761304,0.3998981146179176,0.30560050110228076,0.44015929252403496,0.5573709258868562,0.2825203733858333,0.33588010156311043
62,0.42486550994702366,0.5394371686709734,0.8833182801951088,0.2059471632798427,0.39091978908588915,0.38864653954708317,0.454144798733149,0.5489748217520274,0.07131479775722967,0.35220853976752137
63,0.39085132106116205,0.5709565419950859,0.868264139603972,0.21730858869951006,0.37619014425566916,0.42011562315075657,0.4772983038997904,0.5423456212847577,0.22510064480338537,0.36989899385307917
64,0.36158206827676087,0.6009762150333636,0.8534531957474178,0.2438732886511568,0.34712716886713874,0.3717655336821264,0.5031668384658151,0.5377128745485328,0.06850247722594026,0.2838402795175907
65,0.33527731026980767,0.6270557023283432,0.8397935342084207,0.34054686730186523,0.32527981974297837,0.35024727753590407,0.5263803022290209,0.5349421769560081,0.06035676120014241,0.2483911499929408
66,0.3142080434842233,0.6505165366900744,0.8283711435402754,0.5145182493778561,0.30921057340376457,0.33235707748100823,0.5428083030502153,0.5341354871473817,0.04754791421517868,0.2824379507541962
67,0.2938476768142804,0.6752065869194477,0.816856955248528,0.6427321805731521,0.2934372727283065,0.3478055088445271,0.5526990032736373,0.5355653575148198,0.2582950918533192,0.3411261459632348
68,0.27886082227065806,0.6958881346184383,0.8080751886458505,0.7137359944167947,0.2847030085635925,0.2917862635438088,0.5594614569643197,0.5393390593393608,0.32765638172531003,0.3293827631897157
69,0.26967250871485576,0.7133698738898827,0.8023259889925789,0.7610282892619846,0.2849101309005171,0.22544804865859266,0.5634306149474553,0.5449439119849752,0.38518183991465516,0.31310011997410814
70,0.267092597172926,0.7247997212679619,0.8004814337129347,0.8032975969127405,0.2902903250923298,0.15385555191814929,0.5613714857239663,0.5519701678009047,0.16268757611113369,0.2493618341427738
71,0.2676266508546313,0.7319054177990949,0.8009334674655215,0.8338978714119684,0.29682443410814857,0.12783500579993365,0.5504556928366797,0.5602124056365392,0.06609395786145109,0.19403066551573506
72,0.2693705297140949,0.7314950124445834,0.8028695370427692,0.8531831181694055,0.3042473285380062,0.11723511968648381,0.5335687244125011,0.5693143006184449,0.1002631560225166,0.11826902020725388
73,0.2741368124559525,0.7264351660881749,0.8068515809278795,0.8609598379524637,0.3127026885036019,0.1447442177725275,0.5104025816292425,0.5788733915771147,0.023643311781721188,0.1070679742146355
74,0.2828747071928742,0.7148227240410193,0.8133529080802558,0.8655453469735387,0.32504858905837886,0.1612989105455919,0.48287638023930696,0.5882081929765333,0.21811880679079748,0.08397895982210953
75,0.29922221090954587,0.6965162565326068,0.8238975805611132,0.8558875161108385,0.33770626811644744,0.2335718497081086,0.4533455749121758,0.5968155041621371,0.20660941830841467,0.18076274560720834
76,0.3203476376473101,0.6764868040750114,0.8364210275743059,0.8140289433095151,0.3453029262573731,0.2926341435313853,0.4209845665020669,0.6042699466315504,0.19639123295385655,0.23021526833808137
77,0.3469004956494047,0.6561605293945739,0.8506867491815862,0.7385752231362882,0.35107041218549884,0.3453018804477121,0.3861198034846276,0.6104502809325874,0.10930804748023196,0.2888593147436782
78,0.3779285332339224,0.6361700440758364,0.8657888491372424,0.6444987955426588,0.3571359916764772,0.37697072039766444,0.3490120649153129,0.615129918872726,0.02486796098495719,0.30246476724453464
79,0.40687243503832066,0.6202420560113039,0.8799069578991622,0.5560483703539592,0.3649699022737066,0.36945614146487066,0.3111531870873723,0.618468924170583,0.04727517222064062,0.2696779114121719
80,0.4314730777869787,0.6069831005285905,0.8915561896646882,0.48527053986068375,0.37894376932367774,0.3452826264081605,0.27667912730425354,0.6207537488340079,0.06916023304309717,0.25301723513985
81,0.4527145814657857,0.5910775473839479,0.9011345144344598,0.4609123961908555,0.39166332261217224,0.3213108217122623,0.24890469212809055,0.6220027332972992,0.24617703242562478,0.2836416643696316
82,0.47164273717085375,0.5705100334663663,0.9089622966423616,0.5046129330915015,0.4018584677226927,0.26332988083897524,0.22858210819967137,0.6222831971235177,0.19230226038864437,0.2632393971664301
83,0.4863931549769949,0.5476562788126649,0.9148344082652826,0.6032871245203194,0.408142682634508,0.23357940533114105,0.21534255955954767,0.6217021803936043,0.16230584022751482,0.2272286043396273
84,0.4955877873316929,0.5270722948204308,0.9187420146834425,0.7108042591804282,0.41412243112161684,0.20826754270929163,0.2059747152018612,0.620332274944738,0.027524856694975668,0.14209181667829027
85,0.5089113010576719,0.50298485666266,0.9238493779218587,0.796693019414904,0.42643253461474806,0.20076903959494835,0.19507095224986415,0.6182971407918877,0.014090882098788048,0.14265995752373029
86,0.5250838514500453,0.48265777361761814,0.9297259712469419,0.8521655940216922,0.440876565773225,0.17864467853974314,0.18036923860133122,0.6159872733625216,0.048395788593481405,0.13697176790883603
87,0.5401634101861186,0.4671970435238592,0.9347529729293427,0.8737695350849206,0.4521561795817928,0.1588081626806707,0.16468004415168846,0.6135994155367306,0.10353760349817658,0.1417965489007599
88,0.5507118355991897,0.4593959821018072,0.9374809644300683,0.8544052376672099,0.45545510714179066,0.19218248723707007,0.15176453724355526,0.6112715082848144,0.30128613036378876,0.1979061603790657
89,0.5545051131232761,0.45793420744046964,0.937897144565356,0.7891121354321075,0.45863273503841046,0.3012812254274167,0.14466265219746294,0.6092404967639966,0.1172286339570366,0.2872581259373061
90,0.5461831443765781,0.4651010674567285,0.9344197557978774,0.6915002846585163,0.45734292077818905,0.3720382071497528,0.14619103073433598,0.6078163155002504,0.04534700918357767,0.3686777171439852
91,0.5284537060236261,0.4774702876547955,0.9269173348642021,0.5767755292272114,0.4421246475217727,0.4135326276052009,0.15967068609563473,0.6073821860451576,0.028400449354694043,0.3351200453282215
92,0.5082815262173646,0.49019819820309724,0.9187122654535713,0.4666124749275877,0.43986239437272023,0.44580327690464855,0.18133091088933764,0.6084037767001104,0.15722359181097495,0.326552934381813
93,0.48584032560536716,0.5063332507323128,0.9095341000217023,0.4151698751148469,0.44333599583820366,0.40731572500992114,0.20470401893968967,0.6110167052336362,0.08685321595003127,0.3180499407818525
94,0.4613054310739412,0.5251004903279429,0.898965731184584,0.5020134133773795,0.44687211092718065,0.36471955479584156,0.2302441706742816,0.6151237740545769,0.1573293083113945,0.23797053399132773
95,0.44047422856710394,0.5381877912249512,0.889107712140206,0.5680641741918202,0.44785540406868873,0.29812681723341394,0.25646302035647006,0.6202377794645949,0.25638738077229806,0.1907279508370653
96,0.4251782754912762,0.5483609142960681,0.8816476355648928,0.6084914327450159,0.44762674220025,0.20737904417390327,0.2794497209584037,0.6259357551064616,0.22064342984329735,0.14752346306734515
97,0.4148704115166699,0.5559610827893784,0.8766914653821852,0.620465400290442,0.44263253637308253,0.12521353009993091,0.2979410601235874,0.6319483794768176,0.27527901479110134,0.10625045114056739
98,0.41313122123437024,0.5566570996655268,0.8757148149075078,0.5860102231620422,0.43543867189283014,0.050558542939066975,0.30921635685240717,0.637912619666804,0.22355889653831643,0.06848526313197961
99,0.4204530451433923,0.5450473270849674,0.87913785659704,0.49883164323739554,0.43234187197931895,0.1407932241187911,0.30976437706721527,0.643357275651429,0.2452534235935336,0.13200806145896452
100,0.43294138392872494,0.5218460984950267,0.8852424243234991,0.5616269549843228,0.43600968817071784,0.24563573904918565,0.29944251323102705,0.6479920238753937,0.2699309512027531,0.20301402568161214
