Frame,Center of Mass distance,Symmetry,Grounding,Arm fold,Leg fold,Kinetic Energy,Potential energy,Bone length coherence,Torque,Center velocity
1,0.691740565473134,0.12998249599062578,0.9583515704256744,0.5865436087726831,0.8616921815967973,0.12264554036428627,0.159791150983113,0.05884296519878668,0.047923391862348216,0.1747082114553759
2,0.706235415910549,0.12763641795579778,0.9617630887811826,0.6065793559366468,0.8661960577100258,0.12264554036428627,0.159791150983113,0.050707026046526556,0.047923391862348216,0.1747082114553759
3,0.7271028564199046,0.12206124017107804,0.9662918424470262,0.6298205970322557,0.8717946672096084,0.15922792085264112,0.15618702144859595,0.04160271732996375,0.03927312113368292,0.21481900899586773
4,0.7489508115794494,0.11583105847975676,0.9706845332072465,0.6451771823635903,0.8757280802817822,0.14179816514171475,0.1514968884824049,0.03272407007058027,0.05749427112763908,0.16047004670673023
5,0.7749867308855783,0.1075247366770116,0.9755974861571914,0.6655370649190882,0.8790206989219389,0.1710942599233951,0.14616996225171172,0.024095087750138404,0.08208181495116043,0.14164059073172366
6,0.8067124398533726,0.09861923974221494,0.9810872905730068,0.6898698145159203,0.8808964189135381,0.22332780147675985,0.14015585391821436,0.01655940735488098,0.03177684911929296,0.22157425339570713
7,0.8412400175832507,0.09122356468486668,0.9864652517408498,0.7033653348740794,0.8807788892090188,0.2525128461908007,0.13399194804755032,0.011051655087668947,0.06566745801946826,0.28383226419310476
8,0.8810428148674206,0.08243589149062704,0.9919342438272771,0.7035574391736201,0.8783705862725129,0.3119634376676577,0.12774429173176768,0.0070024471741146925,0.07707346798643253,0.27956324021651907
9,0.916765137114382,0.07586425033429067,0.9963427280144446,0.7052846087731552,0.8742180717247131,0.2768915097223144,0.12212637396068558,0.004170216290429568,0.007930688611622728,0.29006064842903956
10,0.9515674621391083,0.07189918645399178,0.9999999884096519,0.7154665119685822,0.8702364067350286,0.2838514911789055,0.11786420704613855,0.0019920173846684564,0.08503360997492448,0.2986130695535697
11,0.9766668860868696,0.07204630220744034,0.9977209922966844,0.7269868599136097,0.8652544581785749,0.22125010747853224,0.11482354416931241,0.0005172035514121444,0.06381337438303558,0.24965463113248024
12,0.9925363260878786,0.07534094103572059,0.9965345053416595,0.7332015770870991,0.8597437773761385,0.17288444342734793,0.1129234664332757,0.0,0.014818043198017286,0.22182512626774525
13,0.9999319345715498,0.0799206863143948,0.9961586401983087,0.7394907664030242,0.8539038823353873,0.13704634768221102,0.11185628769504817,0.00023296725982238802,0.07217270461342327,0.20322111791886507
14,0.9999999981606068,0.08723428174588681,0.9964833033277669,0.7441286054138214,0.8472138789031466,0.16561513161779587,0.11129382983985137,0.001500475320072297,0.04742860392326819,0.24061177975666312
15,0.9985020848249698,0.09676641613699442,0.9969555406069789,0.7512935712693238,0.8412276754757487,0.18623008492649193,0.11084373146807383,0.003656319789476702,0.10806390110047549,0.2532187994609322
16,0.9910748414885668,0.11002466815016651,0.997932568963804,0.7690202600129827,0.8359605510787118,0.237817621574698,0.1106469598012551,0.006772118184060875,0.19509129568293254,0.29941154718345103
17,0.9754443345109546,0.1304431364954404,0.9998970318421483,0.7954988694888292,0.8278287618987457,0.351756706121898,0.11100890101952932,0.011051934821941776,0.21464443538493197,0.45965712293226585
18,0.9464065520225762,0.16155936787299016,0.9958698461055613,0.8226997605507453,0.8194733368078906,0.4912411031846181,0.11263896377281914,0.016742050572343833,0.04427719121176451,0.6794357905784613
19,0.9099724095255137,0.20464315655708173,0.9892351333485208,0.839902745523342,0.8057227625170288,0.5685613093360035,0.1169098753161273,0.024142603658481556,0.16912333960242856,0.7041539371971687
20,0.8584141032701565,0.2568066101891198,0.9799107032879344,0.8430778645903726,0.7977250370001261,0.6776574875634901,0.12479450321629264,0.03306270823855384,0.03212347111199945,0.8703784389363197
21,0.7994364653540286,0.3119308092777068,0.9680910499046321,0.8267291968407339,0.7900882693102976,0.7053778607128709,0.13591032574752657,0.04333314651568383,0.010677353389832825,0.9625374569867294
22,0.737818237237729,0.3686380198754144,0.9538834579939107,0.8009062495841903,0.7817941667410893,0.7089673841378515,0.14929625045572595,0.05477508824814588,0.18982820716733326,0.9426092409140535
23,0.6824661134158767,0.42154296904938376,0.9397871798139317,0.7738838691391835,0.7743570633608916,0.6429660566201415,0.1630812122134565,0.06740422012084195,0.4285182065065488,0.843903883136132
24,0.6383623618668596,0.46589465370439076,0.9273275012569705,0.7519616642673872,0.7642854421634291,0.5126094357782631,0.17565528664300603,0.08092717661548349,0.4315471089532442,0.6537179589014686
25,0.6054795741625493,0.5012666460886426,0.9172447564780395,0.7376511367890883,0.7506954982840779,0.39017915025619987,0.18635581688904743,0.09496692374719973,0.3441528329670925,0.487313434176712
26,0.580975857681191,0.5291134983655517,0.9092546407696025,0.7251320570746982,0.7365218210351873,0.295071959290795,0.19474979887513824,0.10916187086881976,0.42147768405431313,0.3683289440950401
27,0.5651941179951624,0.5485437706733519,0.9038516311345315,0.7174803354586371,0.7228977531427554,0.19334533894057318,0.20054540743336707,0.12322090836620965,0.2487428762861151,0.24419437767248245
28,0.5559917371936833,0.5611440987797708,0.9007364582479203,0.7163173672074895,0.7122107800999798,0.13962762664296882,0.20353850850235955,0.13688428915993958,0.28208474261109034,0.1922030193996621
29,0.5557020246728723,0.5649986953845827,0.9003990636824537,0.726956068079464,0.7031271037242786,0.095796580695611,0.20372534234452314,0.1497493032980103,0.031869210711292464,0.1738828847450175
30,0.5618538952712224,0.5644773104253918,0.9021062042095035,0.7408130365176323,0.6968111417487008,0.12022487158193493,0.20103856700490885,0.16178697044273602,0.02958283236058848,0.2357038214009045
31,0.5665594817684622,0.5648632249718508,0.9036147757753011,0.7512731505804666,0.6932670535013653,0.1268728754805878,0.1970376787437125,0.17302446771263877,0.22297294888511662,0.2731767945524153
32,0.560970489378989,0.5714850706535569,0.9022250923388838,0.7629118339191665,0.6923304913049574,0.14470346296694753,0.19522447244939603,0.1837730099145827,0.5553563775852736,0.27307057781086164
33,0.5425424489300382,0.5861938143062158,0.8966770410277678,0.7692380889743459,0.6895925792069801,0.25992711199732205,0.1984701203175464,0.1941914907017646,0.44887891006394437,0.3490898370786878
34,0.5095816392880758,0.6078388738602112,0.8854378766634813,0.7483951365421875,0.6794941644752189,0.3741767200153958,0.20811398402744086,0.20417375058076004,0.2730784246875162,0.47835799610821617
35,0.47149372429695846,0.6311883619896738,0.8715248805125491,0.7122731746526273,0.6641188291776896,0.439142451794136,0.22253675209879867,0.2136815058887151,0.16318643934342472,0.4806391750497298
36,0.4342981408850441,0.6576516291995832,0.8565332807865836,0.6743724419161659,0.6416769749340063,0.48115333689836376,0.238219151680949,0.22297697853701096,0.07654543618031429,0.4744672393657684
37,0.39731160655280645,0.6815671278190087,0.8410044282745568,0.6432598184562017,0.624833765213413,0.46112763090271813,0.254888921003809,0.2319184785324382,0.23626769958877242,0.4176120574959485
38,0.3615740501232392,0.7030197190319346,0.8246284172619859,0.6175494026818249,0.609768250035581,0.4161026684545224,0.2729280604360716,0.24032560584663593,0.18661331457396177,0.4016159155131695
39,0.32877942679698197,0.7220369428640472,0.8084969050747481,0.5886537662117035,0.5941684700682062,0.38444452604908397,0.29160533045485093,0.24837794249127126,0.32120514541127837,0.3243085378596155
40,0.29963660632488825,0.7388354381839721,0.7924196108473651,0.5615151523132893,0.5750622911989637,0.33763484171705177,0.31084485067590817,0.25613206474908373,0.27718300843494675,0.2502586968823675
41,0.2735472767970812,0.7544540193124712,0.7761730552862866,0.5448002733338616,0.5544373361262597,0.2977713156675146,0.3303435860688494,0.26356496307901445,0.4968878244579244,0.22506084936680343
42,0.25418885498407795,0.766569329315178,0.7631408304687597,0.53526638388041,0.5386335240039537,0.20902603278127582,0.34795705852036046,0.2708133286130934,0.5297386945626367,0.1834002444967526
43,0.24238551486440804,0.7751128971246829,0.754524295877226,0.5249056593111396,0.5284188752063943,0.11845018094874116,0.36075654931715234,0.27809944611506465,0.04154325530653997,0.14190182495100734
44,0.23223194596789368,0.7841306854822558,0.74708163191715,0.5152333818437955,0.5218729125757696,0.12033805097109895,0.37001292223324905,0.28561801925169367,0.1982137868689622,0.15570290576854479
45,0.22171161255833657,0.7954206644348585,0.7395676442884409,0.5173126819544313,0.5200812992219043,0.15793711959629417,0.37847729965640986,0.2935039157932754,0.3838235006655087,0.22426595641141372
46,0.2118244559583162,0.8106322183654224,0.7311840512331332,0.5365809922503342,0.5177569456272321,0.23362674839247935,0.38672809090765464,0.3019110288648128,0.4432987274030649,0.3505362270395839
47,0.2000504578102647,0.8315577100001045,0.7192003395984822,0.562884093552136,0.5052675388971449,0.31466868420388616,0.39704589044451377,0.31089963090069256,0.509089363343217,0.4463271680894705
48,0.18496178867850216,0.8568517401146579,0.7031089325857953,0.5857080982121989,0.48612603451724135,0.40912272345889045,0.4129594339325166,0.32051047328790333,0.42125874836012567,0.5659127679742584
49,0.17200818544479549,0.8793899665044219,0.6876261710952672,0.5906798013819661,0.46638727689596843,0.35949988443474407,0.4316464255395376,0.3308911453059516,0.1907497426117825,0.46213857121954227
50,0.16146812486122572,0.899460897003483,0.6742479643241525,0.5971099886765969,0.45175557858823134,0.3302801893496318,0.44804503908250276,0.3420625128497721,0.5327370708891735,0.44499435617537203
51,0.156369205209301,0.9134154999048685,0.6672387447505683,0.6122883882187984,0.44740132805032756,0.25232420113364956,0.45906561302526483,0.3542204667264449,0.35251083636280095,0.3005672787946111
52,0.15439475383783305,0.9233515520531348,0.6638686668739302,0.6243930007447362,0.44606677993302485,0.2051075910086446,0.463965215913094,0.3674129881225544,0.042373750315004795,0.1931700969634317
53,0.15441579411052714,0.9307333728550626,0.662630126072947,0.629667348562548,0.44834350800602685,0.20001906056270607,0.4656415063077759,0.38146578727724095,0.1679936993308746,0.20841298099507435
54,0.15816205344065937,0.9335079777382732,0.6639215265069776,0.6299688083883369,0.4502607963579713,0.21200701364899754,0.46487779485801267,0.3961182963886715,0.1756571062236922,0.23904096721335039
55,0.16163213781240698,0.9361800514449957,0.6648452578034784,0.6253588651607986,0.4517013894505238,0.18682548333453616,0.462576494541459,0.4112515190033034,0.15219460314622457,0.22652614202585658
56,0.16378983421331916,0.939414049379819,0.6644491328704576,0.618997013045095,0.4536568954665338,0.16476000651553976,0.46077640270382936,0.4267815940918863,0.2967254314825237,0.2116310627852704
57,0.16446149195165713,0.9425140043366349,0.6631120558197169,0.6076445409684099,0.4562954513477138,0.12114071863847305,0.459335720891317,0.4425533902339458,0.4130029656975014,0.16936705306958016
58,0.1648192116879377,0.946095504506053,0.6621736822206822,0.5878340509316196,0.45831265513472225,0.06365490168321522,0.45720070971940485,0.45839274049774603,0.17605383661301421,0.12452336570042526
59,0.1637719996021849,0.9494442831943954,0.6603709523223723,0.5640627226140462,0.45807202591444524,0.031198988593453394,0.4555709612333041,0.4740309999468939,0.30050335738207695,0.10475717092553931
60,0.16453303456399834,0.9504578368865894,0.660716727073566,0.5439634653945876,0.45968026413362384,0.002981349141010246,0.4539516226492741,0.48921487699357047,0.21164520231856646,0.0780929766738149
61,0.16802341668914664,0.9470770865140661,0.6644005093752502,0.5283562874932456,0.4633001005884047,0.02275105447766664,0.449829168557903,0.5036752997156357,0.2896905071167176,0.013920861669492747
62,0.17376886766592517,0.9400086517347006,0.6706358049834487,0.5201155907534978,0.46926620233895683,0.07965362625623836,0.4431934349021993,0.5173054257397595,0.3740605787758792,0.10991190101889406
63,0.18257511057252157,0.9284360651003299,0.6799752457063812,0.5221629316194962,0.47865716385846646,0.15393531273861924,0.43377781370624935,0.5299040653482624,0.27994993180595024,0.1888570786106586
64,0.19373112986177402,0.9124578654370066,0.6912529266935288,0.5396700931629885,0.49070219704669643,0.21728660433985467,0.42136093658460866,0.5412664013404389,0.10787258820078686,0.24700840402049734
65,0.2053954394478065,0.8929433939473126,0.7026524426885539,0.5731221046404025,0.5040035625432433,0.2553239005140871,0.4078006861267138,0.5511751226844753,0.10727950641583499,0.2686697348371121
66,0.21782701573330468,0.8696642884258595,0.7142012595199525,0.617943890874389,0.5166805372514154,0.2960922623777554,0.39481368856862786,0.5594650294568438,0.24241835124906824,0.31638385707423344
67,0.22984415669698147,0.8431752553047902,0.7256745856123428,0.6557611024196525,0.5287954566454058,0.35456901746153724,0.38245727311260125,0.565977102566645,0.14694008774634595,0.37303853836383716
68,0.24163024100891026,0.8140958717211871,0.7372495329679177,0.6761189559811669,0.5399942178682275,0.3985391365916401,0.37127711818330256,0.5706435709180149,0.3227146317648014,0.43179277805495025
69,0.2555791654063212,0.7823229367845279,0.7503836783409766,0.6837446196595958,0.5542540282583572,0.452817311057761,0.35985138514519094,0.5735710723736372,0.35387811533247215,0.45087513184209216
70,0.274417699966893,0.7468699274917919,0.7665794232704629,0.6821853402867725,0.5718406694916403,0.5019055418306696,0.34517798374520176,0.5750325128183315,0.3135559756421693,0.5281423441916646
71,0.30005435924926693,0.7099417911538705,0.7858984219799402,0.6781055215705174,0.5900895421878135,0.5333934442364435,0.3273330600562783,0.5754384779152798,0.029052641704528412,0.5580310853402776
72,0.3228391777164089,0.6764055108449859,0.8026480419320124,0.6630856745815171,0.6051729695845594,0.5158047815774577,0.30994516183195,0.5751361308327938,0.49166659694866294,0.593297897360331
73,0.3430075471802508,0.6467661915498549,0.8163350032931971,0.6511140377769993,0.616989463891702,0.42989350770122114,0.29600811571878877,0.5743511605286915,0.6421823734885388,0.5421448329755889
74,0.3542465788616586,0.6262409079656343,0.8244035105741632,0.6488199902831971,0.6245046530990804,0.3075593715602461,0.2870873792142581,0.5732502534658307,0.661343731294684,0.37892596368061937
75,0.3605002697867732,0.6124717069954262,0.8295120856068628,0.6537256115115713,0.6319009313688967,0.18403961698949448,0.28240719420691546,0.5719766868719183,0.3484267298024919,0.2371562110907925
76,0.3642168828502541,0.6047763023015119,0.8332776668093387,0.6561385642692628,0.641376585349867,0.1132154941742351,0.2783844648837248,0.5707303103236566,0.17218645903142243,0.14930053823222417
77,0.36145017153391074,0.6052704172571239,0.8339837435018187,0.6541691850211473,0.6507348727324387,0.08238554917622788,0.2744303337027837,0.5696839216326708,0.04927928598769683,0.12274137881527397
78,0.35574811597243394,0.6114513822393406,0.8332261194581221,0.645028936827182,0.6625194608818219,0.09399491456088781,0.2706533639406878,0.5689724895416801,0.05179302124033688,0.18719015315554652
79,0.34898422142518115,0.6216843676843449,0.8312800745703868,0.62753995628257,0.6712021244067705,0.12325009574789707,0.26594113843548156,0.568732141441394,0.14516787482464116,0.26287009106642284
80,0.33855542697401697,0.6360966423415533,0.8264351070282769,0.5962522679877528,0.6669930577284016,0.15986255095880988,0.26176360116024083,0.5691492175887893,0.4096339562155107,0.28583768460386366
81,0.33157278471449836,0.645211621284336,0.8222335719880886,0.570452620131781,0.6512441636350703,0.08082606372866831,0.2605823650971863,0.5700510171173462,0.05691763900209533,0.08825542646550202
82,0.3263688532541902,0.6544044167299826,0.8185367359355603,0.5438457641671177,0.6368083900916781,0.058741391545400236,0.2615204581149209,0.5712604072996895,0.10631314215288347,0.06603420826345073
83,0.32277485634160213,0.6613904106215995,0.8158763262595708,0.5058733574422596,0.6271430101821612,0.03679600975034463,0.26248623031638063,0.5726702731953459,0.22136786301357098,0.05925015474469715
84,0.32343534842690397,0.6629670964375594,0.815692238443435,0.4694414049859686,0.622593566780073,0.004295818499126536,0.2620134070740931,0.5742345155605427,0.18473401073180432,0.044718250651701645
85,0.329406042952966,0.6589755037447231,0.818622586794286,0.44337055842153195,0.62524326480128,0.03801812092678634,0.2594243279544843,0.5758866304873445,0.14865786864947103,0.10811290571296989
86,0.33671092424770616,0.6513403238555012,0.822742276888706,0.431619211484417,0.6346946557582137,0.06735819408237628,0.25546475737879615,0.5775257269189961,0.22373190714527763,0.1585289862427142
87,0.34767444632039735,0.6385839217011315,0.8289844792433829,0.4418432171540158,0.6489237441634856,0.11980228033962016,0.25047743490836516,0.5790731634176065,0.1993098078154891,0.23287895581451737
88,0.36132997522949706,0.6216715754801809,0.836292507692108,0.4758449507400227,0.6636320161023455,0.16466859323994282,0.24438756695941655,0.5804349075295067,0.056242384390825524,0.27308404716989854
89,0.375115306830411,0.6017237134758985,0.8433475420173316,0.5273492892828603,0.6758978653458111,0.18848522688104882,0.23826469945098502,0.581502095840659,0.13672695799023535,0.2803361721755606
90,0.3906848572074613,0.5774020714347452,0.8507041248937993,0.5814006178973093,0.6850037862273685,0.2362671662830742,0.2324604454675276,0.5821539189008608,0.2310056378808209,0.3048774875344438
91,0.4092379771677719,0.5481481434045935,0.8587079159602635,0.6226192812849889,0.6896978469735875,0.303431495525686,0.22588812550067433,0.582300300405498,0.08869539888416905,0.35378692990436694
92,0.4273072586046202,0.5164448314302397,0.866315052576477,0.64917794722532,0.6926785048360449,0.33466561578427434,0.21947266669850146,0.5818254247064947,0.4057480981617816,0.3801334597476761
93,0.4482085770413022,0.478374435900051,0.8749774249421385,0.6747549854366759,0.6960887931244993,0.4420432107453353,0.2130681950761574,0.5806447291121611,0.30359381986864453,0.5321851549874282
94,0.4716542612547348,0.4345612334028245,0.8843957867548303,0.6993414624222626,0.7011691899780051,0.5310400284969363,0.20537556883521546,0.5787058175154774,0.5612860046498022,0.6729766924382973
95,0.5004699766715666,0.3834416703571111,0.8950815135238079,0.7204204768907787,0.7075563566877728,0.6656061812902656,0.19622484996246725,0.5760175964921007,0.03484305552965606,0.8587904066031244
96,0.5294556742240418,0.3345292467378843,0.904789636373754,0.7384848580844708,0.7139736221343401,0.6695400776652608,0.18648344797420816,0.5727417971403844,0.01518303081543823,0.8630360150423128
97,0.562278298496304,0.28784832189091303,0.9148213172737217,0.7563569413215907,0.7218706774225199,0.671846104879641,0.17608230259551458,0.5691277188029507,0.18127149468946666,0.8919999225315068
98,0.5925162358283174,0.24852751153352057,0.9228923109834202,0.7672736781197327,0.7294487181995,0.6195187470721822,0.16517865490033884,0.5654022895639778,0.38782444161386487,0.7955958417110065
99,0.6171135871355082,0.21814537581539487,0.9290722144848623,0.7716564398867453,0.7386297510277368,0.49865688093848914,0.15561788881246388,0.5616459223935107,0.3929229849039796,0.6293458382532349
100,0.6384378429319375,0.19469039391880563,0.9344708958921404,0.7739249470511209,0.7484236626929904,0.3721150720919711,0.14730234648681947,0.5579202195311581,0.3374749453588119,0.47431263635797277
