Frame,Center of Mass distance,Symmetry,Grounding,Arm fold,Leg fold,Kinetic Energy,Potential energy,Bone length coherence,Torque,Center velocity
1,0.028848576679626467,0.8114205626024419,0.2889513000392442,0.44782173196812947,0.026060617462696944,0.014175353948696911,0.9665281772745288,0.793030215615348,0.05923924311724608,0.03624687792946258
2,0.02828733964335805,0.8136264182268046,0.29202367177592414,0.45045236721862475,0.02362956815466632,0.014175353948696911,0.9665281772745288,0.8082197780465391,0.05923924311724608,0.03624687792946258
3,0.02719870286384399,0.8178847872782883,0.2974656437222179,0.45306291440155505,0.019354304787069995,0.03551321761924587,0.9735237933791809,0.826297109852443,0.06579940594216614,0.05395175999865572
4,0.02558958809894164,0.8225139106952003,0.30188580201615967,0.4567524057573093,0.015351545400845426,0.02235978382110579,0.9808937504041827,0.8394563647593358,0.04189888397463716,0.010619545775987936
5,0.023855797020779012,0.8278197634712562,0.3092947816174953,0.4653451587020565,0.007517339987273715,0.04778013074571224,0.988754033172498,0.8542959531901451,0.046375140011427424,0.018021450723569216
6,0.02237297232105303,0.8320586766602951,0.31333843900318303,0.46981330069638466,0.00318733813258129,0.029281123523549002,0.9959372045145969,0.8698084023573471,0.01539244309077913,0.003709661049095931
7,0.02079175329871107,0.8364654265727547,0.3165473661521525,0.47329284239579866,0.0,0.03484937153869103,0.9989007275595921,0.8858861118494042,0.03232321785657796,0.017954457153680416
8,0.018966298305056292,0.8411383136144375,0.31721132769503324,0.47130136795192873,0.0024228846126382064,0.039432849439876565,0.9999999817067479,0.9004169867839712,0.07490530837523643,0.05089425184269229
9,0.016650015450005957,0.8467140818590896,0.3163368824238696,0.4741664046174108,0.006691330439871185,0.058832877185357714,0.997753681849642,0.9126382749895188,0.012867572963962251,0.051062301818318875
10,0.014517705187396663,0.853168490059877,0.3146857611267589,0.47965664430579263,0.011899509757702273,0.05986712857404037,0.9917891387247499,0.9212051944633092,0.04958302243480007,0.04173204256725645
11,0.012744944840665108,0.860084694725259,0.31068582005035134,0.4836783357433372,0.01806623219141849,0.07529374376553358,0.9828823801710063,0.9264712891841281,0.14372072622057816,0.06779259812984638
12,0.010435831338803743,0.8721977515011919,0.30901302518121954,0.48909913006499367,0.02042920514745405,0.11413789618644883,0.9731914692367869,0.9266990399039122,0.0685538851706921,0.10652462666771718
13,0.008214932844087702,0.8835911979705411,0.30618564816827176,0.49276481098417235,0.022159474631385668,0.13406057146972583,0.9634633197311954,0.9227975162272272,0.09268860880477237,0.13707955173450176
14,0.005687962227193122,0.8967827315461663,0.30357308959801127,0.4943988568000059,0.023043655750784185,0.16116476397307206,0.95264602890661,0.9143585793645241,0.23550206899926412,0.16202882062104612
15,0.0028852901362722678,0.9118080248611253,0.2989179874016482,0.49372025358662613,0.025162822626702677,0.22066898081770994,0.940483594130821,0.9010153066951798,0.020153620721357096,0.2454394953211751
16,0.0008487740907304341,0.9261425741139113,0.29284268271864883,0.4939842688278759,0.02842061709741958,0.21832291545225402,0.9256889548005547,0.8831702145109342,0.04447048205718548,0.24204759192989486
17,0.0,0.9399662296628805,0.2825418412733244,0.48958747308866285,0.03574063962742489,0.22914149118804433,0.9069160797422631,0.8622596099413548,0.034871164651818345,0.28936603382522336
18,0.0008928931396720312,0.952194857279025,0.2704700070056335,0.4856762543036544,0.04114252626120039,0.24029875860650265,0.8849812097705353,0.8389522951569859,0.12454218885887572,0.34460105702741967
19,0.003198120550866318,0.9642667444037358,0.25605150840729185,0.47997103165732413,0.04774877205080366,0.27056077622217434,0.860186864718569,0.8132306697471312,0.11238636906092872,0.39459631690575714
20,0.0059050325974235995,0.976904321785748,0.24186570299427687,0.4695230642700503,0.05388255316055322,0.2999383787193787,0.8345235352616605,0.7861159286700801,0.03371000008795216,0.4501972935971286
21,0.009438535054803427,0.9858372286220624,0.22816813647098586,0.46279246511967614,0.060025859727334124,0.31328679527591563,0.8098816589390441,0.7581970877560246,0.06714668381537882,0.47943378665708114
22,0.013031065547922174,0.9938571913908251,0.21654448071044796,0.4941234790931016,0.06358889162044286,0.3327065886260324,0.7861880154620781,0.7301785496235674,0.015800259324825358,0.49785500503393765
23,0.016455764934267356,0.9991906313121849,0.20549937832875992,0.5299751156988248,0.06978094864077945,0.33354390414664337,0.7625967582081187,0.7027246261419693,0.04761926145384968,0.43529833263120454
24,0.020265292789751685,0.9999999958533251,0.19392626248012212,0.5758326932244506,0.08132377042944682,0.34948520120457705,0.7352909247650993,0.6757814732386404,0.02704558799837058,0.4168087094513566
25,0.024425981342098745,0.9991171571908235,0.18279571620873503,0.6123248189322898,0.09366995633503553,0.3477565428931333,0.7081614018966067,0.6503310185507931,0.09820404051457392,0.45558421839080876
26,0.028742416089420995,0.9958708342614094,0.17226926716893698,0.6429841599896123,0.10914997754450916,0.3319567543234628,0.6843730361995614,0.6264970803871946,0.028719079692358495,0.43128351883610655
27,0.035324231220544657,0.9900889482360911,0.16038705283931956,0.6775086607813329,0.12699591935211976,0.3395816703585451,0.6599138811252725,0.6042448358054983,0.08833965652752654,0.4150348132926855
28,0.043296809781832334,0.9834152952898039,0.14892718735877056,0.7105675498280303,0.1440543792443619,0.3230953489695736,0.6349395256849788,0.5835763722263035,0.04307902063604004,0.40411548234596756
29,0.05328383039645636,0.9757141397269233,0.1370711242182513,0.7453624617043288,0.16071989356193409,0.31495601037680626,0.6107393448161492,0.5642626553447317,0.018310625060768505,0.38719529874686903
30,0.0635265687150096,0.9695022246872592,0.1269958665502884,0.7742906087157692,0.1768186270463873,0.3140731313584245,0.5885301275286987,0.5461869706169585,0.01593775659617623,0.42238705510000696
31,0.07592019865616045,0.9615958792213505,0.11613888362861075,0.8049305734952027,0.19102069321550594,0.31135971542851276,0.5681790451964938,0.5290861537912477,0.03421046127224067,0.4024654268968652
32,0.08844936594779598,0.9537139560292224,0.1071419695285956,0.8335876616650473,0.20069915381250203,0.31802507268138563,0.5495756660340312,0.5127359587413448,0.11760479615036025,0.44572788098980676
33,0.10495366210485686,0.9423853521989309,0.09576956048371911,0.8635339497409069,0.20888573856668,0.3416041696414082,0.5307799108026926,0.49739554666173497,0.18060925531576003,0.43526093517498127
34,0.12167757035411021,0.929836533845705,0.08513683948968084,0.893239396114505,0.2234228791416134,0.386093727552572,0.511843349097601,0.48304434645413746,0.1548115260702018,0.5579647592266934
35,0.14179083505545745,0.9138617145861008,0.07134942291095027,0.9221571589262314,0.24739047575334586,0.4236306746112577,0.49177473565208296,0.4700720479247302,0.07727808222980441,0.6001259490239919
36,0.1616850534172391,0.8955096357400435,0.05879263651500662,0.9490636091679534,0.26852311216235875,0.4070760808279664,0.46994581283667314,0.458875286774929,0.2830977758542669,0.5185549828318134
37,0.1770953163066528,0.8786130971178078,0.048161677987264596,0.9695433135073311,0.2976991590588084,0.35332776419438555,0.4533685479944388,0.449830063824698,0.3175755288972656,0.44890541548618196
38,0.18725456872266835,0.8659024224177412,0.04119371985089261,0.982180070952555,0.3303440828066342,0.29077881094860425,0.44419032228940974,0.44289973503120755,0.2882620017712192,0.37762308281859924
39,0.19631142777708155,0.8574256636043315,0.03495065933873787,0.9878573178396557,0.35960978815141226,0.22497953823862807,0.43867345495492976,0.43792412480085463,0.250128478538756,0.26891082822380874
40,0.20320593741576773,0.8528618492741612,0.030397137125529033,0.990707120819866,0.38519105574791396,0.1708899794093914,0.4341685949211445,0.43464920772261945,0.13252748813533557,0.21753842381635258
41,0.2079913967070702,0.8519229474115563,0.028006161057795402,0.9906399626915222,0.4036103780827943,0.14159508983821442,0.43311201899122337,0.43286108142681623,0.07222467321273375,0.1974872749755867
42,0.2113714844080029,0.8523372553482137,0.027034541969217913,0.990229600351419,0.41543939860015777,0.12154605591412272,0.4356382345993407,0.4322821696303429,0.07455042064649009,0.18980944862046623
43,0.2102761620544765,0.8560234506447738,0.029716753683847776,0.9942403417151808,0.41975721735713184,0.1026549820515181,0.4426102844163258,0.43309784769584436,0.04712405625933493,0.16849885307220544
44,0.2138568342502471,0.8551086957690689,0.028658821380979266,0.9999999251429593,0.42321389529424924,0.0888951771053039,0.4485190934075232,0.4343773927576942,0.03331923813725909,0.17939031969769179
45,0.21666548536727942,0.8544647305723517,0.02864219703672565,0.999108306864571,0.42138430381103986,0.07844675237770023,0.4509648592386743,0.4360215268656556,0.022197595719335043,0.15758427372422304
46,0.21930278351973032,0.8537402593766671,0.029069380759552503,0.9981426382633698,0.41340058346692365,0.07279152443878673,0.4552077615784366,0.4379416895173932,0.044491381739092555,0.15704337716644512
47,0.22308122972291178,0.8513476612200154,0.028076588258308187,0.9959815633071979,0.40497367242969995,0.06061499518209282,0.4584817814249756,0.43987710207186964,0.045359862704797124,0.1395903694544652
48,0.22552755573851505,0.8484975953088343,0.02738036643707292,0.9972039666937427,0.39805072033106287,0.050587773478881284,0.46001964264389256,0.44162349022748,0.02767645078227424,0.13115115156155221
49,0.22863609474059163,0.844249440990273,0.025683349564923907,0.999416926414102,0.3942661769136668,0.04593296922106422,0.4603018698224079,0.4429772498253945,0.02460704095873587,0.1118005266674951
50,0.23210177635090207,0.8398263807176307,0.02319522349688851,0.9998432213141032,0.3915351653386559,0.04253418543947101,0.45883702479841676,0.4437742217265239,0.02498111745386773,0.09989910909633327
51,0.23593104652629757,0.8346905736423805,0.01980514339320098,0.9994940664414519,0.39301863551241567,0.040455183007200725,0.4555115454775568,0.4438795827856649,0.040427896524161934,0.08384184265118468
52,0.23985134866649888,0.829840674833162,0.016000669355890344,0.9987078419599646,0.39527659950278693,0.03366619548215302,0.4499874604488681,0.44320530597896435,0.008945675048609197,0.05662558897478934
53,0.24384707132903657,0.8245388247235501,0.011706682213357673,0.9961696889560843,0.3995470529863546,0.038096911063622965,0.44338786333219726,0.44164632541558746,0.04352584383736655,0.06165251117291247
54,0.24979877412156684,0.817341558866539,0.005927745764914225,0.9946221699053319,0.4063153005869894,0.056144774084422984,0.4348231670515495,0.4389904865330898,0.016925197183114863,0.06315373362418311
55,0.25507017308770047,0.8100172090348009,0.0,0.9916294555337174,0.4149640073663992,0.06334202462898839,0.4245864582760478,0.4350495488662008,0.013033181757367016,0.0703249960899282
56,0.2614735893136717,0.8010799953916276,0.8139130327800055,0.9903212602131007,0.4229488175106118,0.07131117859031418,0.413933789116168,0.4297907388483393,0.08265779504019066,0.07598773787878797
57,0.2711629812815554,0.7891222651721569,0.8222571436541642,0.9890093217241822,0.43110691936525813,0.10066865718679212,0.40097950035547403,0.4230462868698883,0.054074183070435676,0.10886984484473887
58,0.28298341771720376,0.775123905867535,0.8319633551699638,0.9875604729021492,0.44081987059840516,0.12225352580412366,0.38481882040579013,0.4147661922045294,0.09267018795774351,0.13169731793779144
59,0.2979912885056528,0.7584481465414683,0.8438843913923224,0.9865754014039706,0.45147380306770385,0.15458130081883859,0.3654993744804133,0.4049312802937668,0.06308354423552592,0.18038537314698014
60,0.31575788834582025,0.73914657237215,0.8576586132909433,0.9869511748347359,0.46737282860434226,0.17931001514033781,0.34309549960824665,0.39352917927432884,0.0584639699446324,0.21286621424111932
61,0.33770368931305206,0.7180346442717508,0.8735781377458707,0.984959201314582,0.48767021070432715,0.2059079498114811,0.3180388183057614,0.3806364420178312,0.048975312447071394,0.24674377500449246
62,0.36344510734713825,0.6948621602254357,0.8906395260067465,0.9817834825527366,0.5067312184062538,0.2306733861181238,0.2913923430248111,0.36631092795857095,0.045578337146049946,0.29877150565740596
63,0.3904028367694814,0.6725730479181382,0.9076438008327796,0.9773431295607508,0.5236724878601374,0.24730449444361957,0.2652048734770266,0.3507038825696289,0.033596283369442495,0.3456484582678772
64,0.41447402897035607,0.6526014152904703,0.9228520272345053,0.9636372551004692,0.5405185612540087,0.24554126407980298,0.24294410229544025,0.3340507694476544,0.22984893749629565,0.38966213994614884
65,0.44094958994432343,0.6344754633874999,0.9389886208492145,0.9336271228774969,0.5587248943986781,0.29835641733417495,0.224162656624098,0.3169361259787701,0.12207690975102388,0.4977461763685326
66,0.4655517649014865,0.6191765226471972,0.9539951877626943,0.889185383386899,0.5775128324871038,0.3319117945244617,0.2079547003412739,0.3000086481432193,0.08403963162842941,0.5444889970183059
67,0.4919557042336193,0.6034671292075312,0.96894518903491,0.838785518080121,0.5972315775831579,0.36368045699447876,0.19453494655900408,0.28370233297276953,0.006302030284568136,0.5972080428111574
68,0.5198730895263121,0.587799829888306,0.9835722302668976,0.7856259048336934,0.6216618751567389,0.3692670713380977,0.18037183044516056,0.2683163881256365,0.1146624584302743,0.5918200989835141
69,0.5522622677529566,0.5700284829815911,0.9983481284495804,0.7323877459430216,0.6547174740611343,0.3396138881539264,0.1633277358633483,0.2538384360241242,0.2038618577935837,0.5330757828201239
70,0.5833564051068376,0.5500649497048784,0.9886655435089952,0.7032005928928157,0.6947590068957838,0.27342022830480855,0.1447631524283613,0.2404374692563763,0.01464514067025959,0.4129945144056783
71,0.6211178573939853,0.5288628890177755,0.9755067557873283,0.6688044726333608,0.7320959542184577,0.2844319119063353,0.12547086804517918,0.2280942824984203,0.06176583091707345,0.41388386699597207
72,0.6570809867297315,0.5084222493333694,0.9644544249121144,0.6361458114778343,0.7636713674285575,0.2651318933350732,0.10774444771523978,0.21687960697068284,0.09807767702943544,0.39741343945613034
73,0.7019753771895488,0.4853285785850879,0.9529430430180688,0.5952810079013315,0.781695971641944,0.3033164429187801,0.09145331015450096,0.20664864315916037,0.12940565530593712,0.41248303170911366
74,0.740064888919493,0.46398117205345296,0.9444932556174729,0.5699725524747316,0.7887172275435846,0.2514510692318755,0.07663953520316051,0.19717285407659277,0.11253167757446791,0.3750008880620802
75,0.7735188930704162,0.44520596386499367,0.938100075847681,0.5560519276253911,0.7861712903694532,0.20544368318765094,0.06547139706639067,0.18815394684517883,0.07008080994393434,0.29837756054131404
76,0.8032993484999953,0.4285086930073149,0.9332390032657799,0.5521671984196737,0.7751823739982817,0.17592792719702727,0.056206477812730665,0.17940637709352233,0.01036290338722042,0.2553426208525918
77,0.8310066482089569,0.41221134988410474,0.9293369981543738,0.5542041159731181,0.759307506365,0.17183099215289058,0.048388206873995185,0.17084301688321712,0.05882140855969485,0.26478446201194183
78,0.8537383002664743,0.3985492698951435,0.9264479824552823,0.5587910740197146,0.7456993951465514,0.13924918551941626,0.04188161472592672,0.162432004998505,0.010790313139581429,0.22185785559740465
79,0.8732970539633784,0.3869660823300371,0.9240532194667228,0.5647524741168192,0.7363894591421004,0.1322705499081864,0.03565514666880362,0.15419603199353646,0.004765618990901547,0.23924196939361575
80,0.8871277977574585,0.37742075343215326,0.9226552978884666,0.5728908953714912,0.7257550296441215,0.1288948209919608,0.029163492891362226,0.1460632019121435,0.004237489064870816,0.24013399309768693
81,0.895962169001563,0.3690424473900864,0.922014712841123,0.5907178612507212,0.7150596643819856,0.12364975542488708,0.02275142166004524,0.13788555208984968,0.0008882747793831296,0.20353159455392905
82,0.9033736269210156,0.35930888932078736,0.9215239374289592,0.5991006669921957,0.706288580231845,0.1261782785803418,0.01642468528322463,0.12949097337625493,0.01611388352846443,0.20813712786842978
83,0.910617176116753,0.34701602955979977,0.9209649974419329,0.6112465737898516,0.69991622675651,0.11588566630960934,0.010949382957326172,0.12071556309961533,0.015494438367251173,0.11094045975056954
84,0.9136986442182132,0.3352887921878337,0.920703533185176,0.611919702426913,0.6973601989277097,0.10758956375028175,0.0064304851021512325,0.11160579101544352,0.03786316474028319,0.1354430378529204
85,0.9150146619035082,0.32516583304292734,0.9206528980048275,0.6015272921433524,0.6946649875856531,0.08473906066586062,0.002901095516934024,0.1022606759090161,0.034961669925133464,0.12334460454611033
86,0.919708313973449,0.31382112464260176,0.9202974037894552,0.5955984038428396,0.6910215284452647,0.06216844457521022,0.0007479165184918252,0.09271266438334191,0.012145013960639196,0.049571962246718775
87,0.928524259120949,0.3010566712519589,0.9194876696118979,0.583525205616207,0.6873745775099906,0.07002222383581823,0.0,0.08305075787919378,0.011789761463383324,0.08787200964554708
88,0.9366194563462125,0.2893889024116396,0.9186973225635992,0.5672542991927291,0.6853008137200207,0.07915108802327891,3.5676322598029834e-05,0.07347349807200591,0.008669646793456737,0.13703054409661325
89,0.9427580898081366,0.278952760171205,0.9181036095928905,0.5538114592401236,0.684497756617688,0.0718292030633846,0.0009128132809377849,0.06392716813614023,0.0028278611427012086,0.12024479973265058
90,0.9511223237760021,0.2678469186934615,0.917325980882459,0.5441451180678851,0.6834384706348362,0.08019224764755031,0.002175862649687867,0.05446834590287486,0.0004527128845539708,0.12547150086771686
91,0.9596807909414856,0.2569709672826744,0.916655957884546,0.5347332093002951,0.6810806443051913,0.08075947500899225,0.0035533119765840675,0.045088113727984505,0.008074292556301777,0.1278524881952401
92,0.9689762380188522,0.24534020926157202,0.9160456205695837,0.5231187427663809,0.6773849992489407,0.09159067651019145,0.005268505112682497,0.03584564973474034,0.021224254420473133,0.13905407375041592
93,0.9788432013621342,0.23376051704324696,0.9153465883291193,0.502091287401108,0.6745436047796279,0.10929026369501602,0.007154585697724667,0.026878140854746695,0.0491773856119897,0.1823400166347724
94,0.9861098606786703,0.22387494310712416,0.9147564002910031,0.46013132338492296,0.6744212954413625,0.14961608370351867,0.008961026345247822,0.018570998518655343,0.14002598304807523,0.21287437220998337
95,0.9965197233587387,0.21068014723649864,0.9136997779293007,0.40401298105933614,0.6788846131558336,0.2575751773431284,0.010565434084036962,0.011429017409766075,0.09800177710741738,0.3546400291610166
96,0.9999999981765506,0.1949510775989566,0.9129724985938724,0.3225036607697027,0.6886137711763408,0.35696426768529205,0.012538674456219558,0.006074726132500939,0.015559398845169053,0.46494812134608265
97,0.9979121281155884,0.16952358649513805,0.9126016185240764,0.239031340749072,0.7014008420852512,0.38716973132279325,0.014771936642044547,0.0027190842262111914,0.023267174597233462,0.45821225187584985
98,0.9962458321920187,0.13181630006599435,0.9117955521817841,0.15973028171206666,0.716204588315775,0.3605144947044652,0.018032053714753804,0.0008885221295551683,0.07062167871190539,0.42158998229524475
99,0.9919687578245299,0.09364001519354773,0.9111110007454832,0.10852070179108508,0.726496595476354,0.29982886458609714,0.022251950119458564,5.857180789291509e-05,0.043284901583601515,0.3677949497935112
