Frame,Center of Mass distance,Symmetry,Grounding,Arm fold,Leg fold,Kinetic Energy,Potential energy,Bone length coherence,Torque,Center velocity
1,0.4721396997457319,0.22662938750075226,0.7929684787534308,0.5720031023988034,0.7141624317245177,0.026320440065695998,0.6592622374746537,0.19831003503482872,0.0008996415901941455,0.10536131380864988
2,0.46701316325415126,0.22236797280838866,0.7873588745559131,0.566350889257936,0.7172064569282868,0.026320440065695998,0.6592622374746537,0.2155214450964482,0.0008996415901941455,0.10536131380864988
3,0.46476388805232177,0.2182408015621988,0.786330722640536,0.5601337257485178,0.7274656385772479,0.029089783903975798,0.6461795106467578,0.23980748930134219,0.016481823449015883,0.1065859963712645
4,0.46375803446018693,0.2138846830491329,0.7884196297700803,0.5519944705593435,0.7449017937236362,0.04750438398780003,0.6225107989411559,0.2725061617699672,0.028435339914881026,0.1445736827332673
5,0.4657088260098769,0.2097326180841856,0.7933073693802949,0.5394194115617784,0.7747971899977968,0.07195876477550313,0.5849573667333847,0.3163137984695715,0.011813159290635747,0.14336858433750166
6,0.473337558289828,0.20638149314801904,0.8034525057208116,0.5281821652596543,0.8162029830404809,0.08702050328157546,0.5339487134119343,0.36874678560934243,0.028497884694155592,0.12377277563785735
7,0.48854620274993155,0.20460517072654508,0.8212929389786512,0.5224318147458374,0.8669552839277936,0.1072129923078295,0.47114097033497343,0.42765274590971936,0.07061534713911778,0.05536194343646358
8,0.5213286760561444,0.2079869097951782,0.8569646214665001,0.521038019059299,0.9164238786445371,0.15827342282591905,0.4004152899505435,0.4868940946717553,0.019638150747278756,0.19787064577589494
9,0.5596196659593135,0.207060834851419,0.8932755122911985,0.523615189977959,0.9484623035914131,0.18204868762485918,0.33403316252968146,0.5424458045023591,0.053838145552883104,0.3783387750740156
10,0.6072229836416138,0.19878067815701292,0.934865382311595,0.5261345676218565,0.9613107904853285,0.23083154086628527,0.27552904660688027,0.5928895128923238,0.08372376286945843,0.5206336434702266
11,0.6662267177380641,0.18424824623781202,0.9817406603471718,0.5282791506306209,0.9545651108103723,0.29780277467317884,0.21733274003737135,0.6377053924642164,0.04412249843334645,0.6406653666839482
12,0.7154647731244129,0.16678526585730102,0.9839746751164028,0.5286167305744222,0.957843904603192,0.2730826189549005,0.16078196482207113,0.6806944200141499,0.10898854830934487,0.5631283406793259
13,0.7393342548018474,0.1544564060460367,0.9686942896156991,0.5223046584627155,0.9572076289248218,0.19923676388461906,0.11460853314791743,0.7235906162310521,0.06535498385599947,0.39000547593702484
14,0.7440057058767645,0.14744210357295692,0.9644287678908514,0.5150414487975619,0.9474634518117343,0.15151716616976638,0.0811458519458131,0.765284729923726,0.04034001280260422,0.2695384618144679
15,0.7394798589646148,0.140912124211707,0.9630043251746838,0.5094665529154878,0.9219616034101107,0.1155536938117454,0.05674727885349371,0.803797609005388,0.04531610140995464,0.2086556646461054
16,0.7317140777600774,0.1387880845116451,0.9645876515722803,0.5099546020628076,0.891660438475704,0.08405301096814853,0.03943850226722001,0.8391674607095532,0.04447871401502535,0.13312764185232967
17,0.7206875406100475,0.13828724114099883,0.9699593894490455,0.514353132946964,0.8763179702644446,0.05336453897072067,0.028901798364352686,0.8713971480182525,0.012149364508522548,0.05762628952115816
18,0.7071363934104866,0.13791610323085765,0.9777543330683046,0.5186709604963017,0.8739973511227918,0.04292718334620865,0.02472137340034182,0.9020204567048677,0.030688608951821256,0.03934060544810238
19,0.687534769588682,0.13570717692273396,0.9898735761905118,0.5263109571400876,0.8767566081607926,0.06885607258263271,0.027456643318493422,0.9307390045242593,0.008179669720274455,0.12288478975173246
20,0.6720247121488618,0.13541526701728707,0.9991485258942984,0.5372813554756313,0.8739460358063029,0.06585145328233524,0.03568097012038055,0.9563868127446944,0.000864291489685095,0.17132166538719598
21,0.6555936613332333,0.14004153137958236,0.9862637940526041,0.5436242745719325,0.8623297670047173,0.07702677805799081,0.05023465821699125,0.9769758807258496,0.0008791498420616095,0.22229221249094747
22,0.6412689011351473,0.14957022324460856,0.9725681125536709,0.5403934740734699,0.8506415208052468,0.08188630248802806,0.07534819901437351,0.9913727047550916,0.0036188674113421145,0.24192073909967868
23,0.6327937787267589,0.16354860302633922,0.9624110369769769,0.5258226956253833,0.8396061748461271,0.08234852312481945,0.11188442314676217,0.9989051323093785,0.028964238803700523,0.17331686114414852
24,0.6232403698309061,0.18084161436730972,0.9508639587884717,0.5026561857017674,0.8285012216747465,0.11114815675727678,0.1601913986402131,0.9999848373458607,0.013793881068571186,0.1651740465474792
25,0.6204732723401458,0.19630829239812728,0.9448993919153905,0.4724816380002338,0.8202819544147024,0.11969012570026147,0.2182429504706748,0.99456275132925,0.012681279921678893,0.10250494280139577
26,0.6208021171179492,0.2067607252203589,0.9423903155127026,0.437567613424326,0.8125755823251306,0.13178781278841312,0.28244941235428733,0.9830055536373664,0.0027645429163014675,0.03133406356285804
27,0.6238495360789258,0.21082174355110636,0.9428541089180315,0.4031140787670139,0.8087539384080004,0.1370010763785119,0.348093954700878,0.9666625765299406,0.013587631770774999,0.03205829356507158
28,0.624266559441991,0.21332296531971,0.9407803554344035,0.37278702986668355,0.813026008173859,0.12936850646353115,0.4099538721687775,0.9472975659237937,0.012568724553189397,0.10136853376665138
29,0.6173188985891658,0.21170746704758006,0.9336338041798217,0.3456342928543734,0.81961542456717,0.1155877669160887,0.465051718710832,0.9264055984413487,0.019544121242731072,0.13238391563211888
30,0.6052308953771508,0.20982753501673632,0.9219544759905902,0.3238276797646133,0.8257103745547059,0.10065489021053191,0.5118817231233287,0.9048811520022876,0.007021187731845102,0.1344943485767124
31,0.5881470061033565,0.20928938944325298,0.9048326929103147,0.3068405244107391,0.8298907228016842,0.097884527112225,0.5518530028014721,0.883219472351408,0.014223432182899447,0.14231214365594327
32,0.5688865089685231,0.21136364362724583,0.8845791563405934,0.298291118392345,0.8300131147887275,0.08945151409647839,0.5876427099996544,0.8614897952709325,0.015669931241149564,0.15302376004522605
33,0.550155475227403,0.21606868694274795,0.8638622855669355,0.2969940339334615,0.8240398527262952,0.07819073049424685,0.622026913050648,0.8395349243705558,0.013854771773110373,0.1187949563589806
34,0.5350587498344069,0.2199335876938059,0.8469273974529654,0.299168558524748,0.8145603434539942,0.06760101218657667,0.6558057265758562,0.8172470441302726,0.006591026732637712,0.08499294925934302
35,0.5241488259871565,0.22299281459993806,0.834487631759551,0.30502277418218715,0.809303931326129,0.06055701898559004,0.6882790750152125,0.7945472012034545,0.007571437373839408,0.05225699559942954
36,0.5126024418051187,0.22452498503979665,0.8214150865487666,0.3150709804259053,0.8102835562121147,0.07026682606486878,0.7218433425647317,0.7710041070884739,0.011410382286609268,0.048733754470942615
37,0.5056411160394397,0.2245545169814958,0.8140191889386473,0.33287945526748747,0.8005002547967457,0.06295302286635056,0.755285609358389,0.7467058987703022,0.0,0.03835424501782909
38,0.5113182277960012,0.22440786649397157,0.8202119789032609,0.35566742800758555,0.7840765169137714,0.06273538817308129,0.7819276144022281,0.72201817878599,0.011915716084455541,0.13065788052381994
39,0.5182280737445254,0.2236496634367774,0.8281529485649899,0.3809351608542867,0.7696638675267274,0.05428285712456551,0.800002408257729,0.6974468292948899,0.025215123155277217,0.14556384702878525
40,0.5249072853878455,0.2221841683111662,0.8354322090216901,0.4060309368073976,0.7622489098903726,0.035435149409409346,0.8104833271717825,0.6734932807638081,0.0030641352904182888,0.13269679079326835
41,0.5351380049072787,0.22109640773143457,0.8461375710597329,0.4311092028520343,0.7579003191145307,0.04615354179931304,0.8103727940088834,0.6506174333764626,0.01646891242352734,0.16461734768458391
42,0.5493778507827186,0.22124085658682352,0.8609064062104,0.45381091848103616,0.7544280824744037,0.06463781330404555,0.7973557629252452,0.6292491487023036,0.01798050405611585,0.16458459827277835
43,0.5638996341605458,0.225721166761216,0.8755057960476366,0.47042455817465023,0.7457207484100075,0.08348379294804047,0.7744427426296016,0.6097284198507928,0.0018716475966121726,0.2355650357079241
44,0.5750742089806681,0.2306426408802828,0.8866671450673546,0.4802347994097419,0.7367834253362008,0.07859946441802741,0.7459053537471997,0.592163713674123,0.011172581067031536,0.20764916761333238
45,0.5888919153248302,0.2363488278749422,0.8994981503462539,0.48241739436773734,0.7239992919596044,0.09389849165052891,0.7134974964891003,0.5767402998162253,0.023187780684409135,0.23437345754698405
46,0.5971075353630182,0.24075889765069142,0.9075833092448863,0.48257105870610395,0.7235670064904823,0.07024985553054151,0.6811298752220325,0.5631279442482129,0.010654424986314833,0.17818163661498376
47,0.602927794364035,0.2412701657185193,0.9140975401834903,0.48123126970554647,0.7306829753063581,0.060684266695430214,0.6511746810948902,0.5513412429581847,0.016394993969162434,0.1323933547869489
48,0.6119539921954905,0.2432732377054598,0.9229559942252648,0.4818692519938827,0.7378838978315004,0.04770379494547344,0.6254888123708172,0.5408441458152318,0.012418795729279945,0.10109520620145238
49,0.6170828253778072,0.24475565993249435,0.9279980255029937,0.48064406356005746,0.7399400371062785,0.037967126180060054,0.608841431646263,0.5314639304557462,0.01301277566112973,0.09759911294553557
50,0.6215638223799954,0.24484094316037613,0.9324490645899729,0.48748683788334135,0.7523914643171037,0.02771795720094461,0.6015149850765017,0.5225152590129295,0.00609032041927614,0.08694756441709865
51,0.6253458119879196,0.24418328028205546,0.9354967842247909,0.49212285640024334,0.7546500598148321,0.014595087274481994,0.6017248224512566,0.5135138671565254,0.008295075131504244,0.021674031682546373
52,0.6241856154848828,0.2407306640618665,0.9339015185910172,0.5049156934835821,0.7640549584236671,0.028795385004763932,0.6135799265186764,0.5041464024595752,0.008933711226958513,0.05787109619337239
53,0.6232281227891251,0.2388711467775115,0.9323475810824703,0.5099397168871588,0.7760899627064792,0.03885409296146519,0.6372043733017041,0.49401713501808486,0.0031128498254778354,0.04527603721308657
54,0.6231256575479451,0.23588391461809097,0.9310241626724144,0.5123918769701736,0.7896454685556558,0.047688748220468535,0.6661908728342953,0.4832378140255949,0.0009560967871263312,0.03818692665000328
55,0.6236711993121449,0.23147783108105513,0.9296823762067018,0.5120512642535187,0.8024216945643468,0.05504135079148756,0.6976154523035492,0.4718023021669625,0.003368548486834641,0.050583323824901466
56,0.6196908695116802,0.22764461897323726,0.924708306734901,0.5035319144778193,0.8114734671387354,0.0521965014103764,0.729261586573809,0.45982590200474366,0.012905329957338858,0.056373900304149474
57,0.6144595196110626,0.2231419720462037,0.9191042129540811,0.4866336500629398,0.8177034897204161,0.04400036275798134,0.7564067669656789,0.4476865078686323,0.011195244464121375,0.05759297830624843
58,0.6075801125320879,0.22012457250530032,0.9122125184717343,0.46157758312153485,0.8226216899504559,0.03666698370513638,0.7741838051237694,0.4359433965148032,0.009343558880750698,0.07040299884240268
59,0.6025642610412636,0.21747472467177412,0.9080907267823992,0.43002689660150084,0.8309352566017546,0.03165708025891388,0.7801701862686617,0.4250268015464652,0.0001309110893852177,0.08669363036840161
60,0.5979725642508461,0.21526396888738186,0.9039308213775763,0.39684982317324535,0.8462018997347077,0.03360072841181978,0.7748415934062128,0.4150837599722269,0.0002995670491582853,0.08651889129429571
61,0.5944543792993643,0.21290543372642515,0.9009868812572195,0.3640989922929817,0.8604260904614709,0.0337108543789478,0.76188775545281,0.40626375291782335,0.0007262545787980752,0.08337193395350029
62,0.5918788011018151,0.21056944312475243,0.8991987510390516,0.3372988509643702,0.871577664228553,0.033750743233121536,0.7444907385101663,0.39858140593029967,0.005930179102382325,0.07242490485021144
63,0.5890264496580826,0.20762399122909675,0.8972365834935384,0.31853160733846086,0.8831822564117704,0.0296262031710994,0.7263802624363414,0.3917720045677263,0.010782017134095127,0.0866292714449008
64,0.5891312551052454,0.20401379428049946,0.8985632163133347,0.30675554047139064,0.9004253454564074,0.023457763682983072,0.7096597900159708,0.38563793487100084,0.004545420265288091,0.07744204146956722
65,0.5893136395175796,0.1998472051145623,0.900453748441787,0.2996608138125846,0.9173196218913279,0.022359151320074676,0.6932837591641368,0.38008634105480177,0.01669942067882243,0.07508342283624644
66,0.5890147772845911,0.1973126965135531,0.90066222587349,0.29501305117344506,0.9375788956436397,0.037680788085668535,0.6767529372498688,0.3751477196049531,0.03844666620244726,0.08883144219239528
67,0.5888956944422866,0.19404699902600928,0.9011567857720425,0.2934981653965133,0.9623468649585908,0.07545627304515316,0.6578798481765133,0.3708694375442663,0.06954241784280246,0.14977483650565657
68,0.5863692477458361,0.19182112926545042,0.9005166590324111,0.29421578253594166,0.987472137116011,0.13221004961639352,0.633107991466189,0.36739467950970917,0.09895178575596997,0.23486274091045328
69,0.5736515054485047,0.19598625260776312,0.8925665053428544,0.2959827528406958,0.9999998931436532,0.20992461673179888,0.6025934731557948,0.36489408959539016,0.11319346036266181,0.38745876505433136
70,0.5367597278601981,0.21245195016597454,0.8651618255046382,0.30361392831379774,0.9659917603166932,0.30274568324674905,0.5674724335849324,0.3638431155445596,0.1250632012319541,0.5699970699170696
71,0.46469202748484406,0.24439878348167637,0.8043484076354612,0.3229707106295329,0.8655327034311731,0.41403682881952253,0.5280005460851693,0.36546737472103075,0.03059129191879338,0.8273518415768005
72,0.3741708819984692,0.279938247376789,0.714710459225815,0.3482552945549675,0.7186018430207292,0.45197121722343886,0.48334314926007105,0.37072881348372594,0.13254908707146387,0.8960824850933747
73,0.29609689346840734,0.30865984785529965,0.6254834960614847,0.37939973748804456,0.5818852760307333,0.3608080219525487,0.43673408743726233,0.3787544781848132,0.10337315529639861,0.6430613059022647
74,0.2290375129447741,0.3307150296555012,0.5330540623934309,0.4111914577695173,0.46057696799748254,0.2837131758981893,0.39980090501918114,0.3890075508496263,0.08104467114533122,0.4625367503295862
75,0.17314377304181483,0.3452670644325503,0.4449424994088458,0.4386228245606955,0.3610032138276357,0.220833255951214,0.37751019654498746,0.4010871445171576,0.07982261872280408,0.3312472281976509
76,0.13353759858972794,0.3492892644738494,0.37802262143664145,0.46043310055510944,0.2931938969423633,0.15631919493988122,0.361889628949016,0.4144719690458556,0.04109723300471224,0.2255434184342684
77,0.10455830040621145,0.34640780644605945,0.32734377827597955,0.4738588464076348,0.25598906695167317,0.11947466447030651,0.3480388211082615,0.42843733091374586,0.06876937857781656,0.21650792136441063
78,0.09035206760021233,0.34083179177028633,0.301781414420117,0.4790152156207519,0.24304422271712797,0.06611396583152997,0.33622834020535636,0.442676269910619,0.05038262201399901,0.132496358420697
79,0.08704641729136062,0.33958436853314256,0.29653779373155703,0.47786441045935346,0.24847874366629,0.018921728098127737,0.32763889826424425,0.4571843475073862,0.0356125597763896,0.062001966944462576
80,0.08705131186468426,0.34301024941784414,0.29625446647305426,0.46795788002667593,0.256464477899659,0.046182608109307764,0.32576256452980423,0.4720676733698531,0.0019772555440027806,0.07345761396544599
81,0.09484585441834356,0.3522597020725583,0.31004658026418325,0.45325163278115826,0.2682732094953043,0.07476225598844488,0.3308996360594582,0.4871442303026734,0.026231548936452957,0.035846035106025395
82,0.11085648490143092,0.361621519753548,0.3361223312756473,0.4262942611738428,0.29825168117772,0.11041737126782109,0.3443251998205061,0.5021189781641823,0.03920558098168289,0.09308223564782936
83,0.14417393154068792,0.37036665748656433,0.39286469920923967,0.39214783504748885,0.35772842882369865,0.16130221806281422,0.3650093231038954,0.5161539588084564,0.08466231771518859,0.28804405875621436
84,0.19525623429961303,0.3677628874206187,0.47393096484605074,0.3585133670094176,0.4551802826669821,0.2192965251732116,0.38963848235871157,0.5284784859277275,0.05112451914779019,0.45352272257769854
85,0.2548299555162136,0.3477284482285143,0.5596684566370225,0.3240278892571723,0.5814281555893619,0.2671297783906011,0.4163423470350605,0.5387846033878352,0.057897778530477326,0.5057671550491897
86,0.3175870489481037,0.31545560372818665,0.6374613051551365,0.28609001156951813,0.698781876872788,0.3221701983507543,0.4465431041471839,0.5466958735730904,0.039055610521960035,0.6412870669886352
87,0.38001268321190984,0.28115446138158745,0.7034563515250326,0.2467896228836723,0.7424626942158917,0.34393319543514556,0.48306993830137623,0.5516902159272538,0.03796709908861225,0.6802675434953328
88,0.42736331500980557,0.24877427988175674,0.7459986052312232,0.21197321314290316,0.7317891575099386,0.30067894449473126,0.5249758602421022,0.5540692452540066,0.01907865009732237,0.5406992947433807
89,0.46150698676114527,0.21878180396787003,0.7791547824969046,0.1873677885665325,0.7631853019759927,0.2680490839160884,0.5651741822047573,0.5541435421997835,0.0018625180848749578,0.4543503009845472
90,0.48928528592025716,0.19164914654147294,0.8094271750245038,0.17937770440392278,0.8451087128363247,0.263197255680177,0.595040340868165,0.552695481317848,0.0011468984616359043,0.5344451207070188
91,0.5026574055567106,0.16424136137059175,0.8226893704099421,0.18661197775753866,0.9230974353145793,0.2655611486822056,0.6154011161152101,0.5504080501278158,0.01921284996774226,0.6501020138187628
92,0.5011615685891401,0.13979619519477698,0.8168005717664439,0.20984401209056477,0.9375552284050309,0.2874344845324637,0.6363029422940731,0.5469340841610383,0.0011504309258836961,0.7370532493445925
93,0.4941575156779468,0.11632521052763256,0.8004741254960985,0.25017290885383886,0.8775949172378811,0.30646275772849674,0.6575109126640009,0.542208695700537,0.12172589963228791,0.8105036061928491
94,0.48528429048531146,0.0988994595389312,0.7789554890930308,0.2907326452234219,0.8157693623025211,0.22350680739038287,0.6749572044759359,0.5368281375397299,0.04666155816123965,0.5946064018279025
95,0.46948495589215866,0.08566617663505054,0.7486812597598653,0.3310456847968583,0.7478026527062617,0.18759164246117688,0.6926698567671001,0.5313864248772368,0.05914499733140195,0.44601032522283907
96,0.4510264441887856,0.07436769165492796,0.7135670477611931,0.3697947513296638,0.6723130467096599,0.1574257805147163,0.7099833900985724,0.5257702871727407,0.03850192447456666,0.39525252171731207
97,0.4331900071125092,0.07019479481925045,0.6779692966973622,0.40240025617499514,0.602559059784918,0.14055909476392522,0.7252794789815697,0.5198774060058126,0.008176224054046206,0.4116384381255496
98,0.40858093059528006,0.07134574902054171,0.636481369385858,0.4278394484261615,0.555571981749678,0.14173879530982045,0.7393568926170839,0.513585730629857,0.0945556744918395,0.4436270696087507
99,0.39272944935510257,0.07258046663712829,0.6090863327768603,0.45333672353484394,0.5362758667617489,0.09274596786392712,0.7500365443872407,0.5068275315430623,0.04063802013002882,0.33400277438721127
100,0.37947554171638415,0.07410579642029391,0.5893787866615319,0.4699562532379321,0.5386567345823444,0.06686480462076275,0.7542127928991093,0.49970569312099267,0.002742276327120172,0.22085498093838052
