Frame,Center of Mass distance,Symmetry,Grounding,Arm fold,Leg fold,Kinetic Energy,Potential energy,Bone length coherence,Torque,Center velocity
1,0.0031923997974430693,0.6070784881367463,0.029838107694942377,0.30812934666296865,0.0,0.061653231074893865,0.9999999820396659,0.9999967953536216,0.022949233780540302,0.0796953267222538
2,0.0017347043516167118,0.6050151574540203,0.025673033247708404,0.3188881441015687,0.005934383528354414,0.061653231074893865,0.9999999820396659,0.9833936064353767,0.022949233780540302,0.0796953267222538
3,0.000643043966358406,0.5993596392765725,0.020064921348086427,0.3301129213072178,0.013393886034184864,0.08072838082504581,0.9904729487489619,0.9670816610581271,0.047451967711924344,0.1488282237280463
4,0.0,0.5904489274138065,0.011311026747758319,0.34172366740759474,0.0237694024290219,0.11364459752840653,0.9760359133186172,0.9503687957554763,0.01377110121178108,0.1507770124874718
5,4.6099894247505425e-05,0.5793958936869911,0.0,0.3528562325886016,0.03690278036314424,0.13441257548689028,0.9575263453827337,0.932861555947133,0.04614199064587794,0.12740656062639116
6,0.0005727934309001404,0.5638274777340545,0.6830795849837716,0.3634518458531141,0.05150089475584904,0.16779846087031167,0.9356937065518394,0.9143178372640495,0.0,0.19675978285904216
7,0.0022747999741149563,0.5479099001127412,0.6954753239145328,0.3744680539993656,0.0651772510105923,0.17212005764086896,0.912299117686021,0.8958827547262268,0.006384842203447267,0.2227885644310948
8,0.004050132620703052,0.5332614159276201,0.7059801788249237,0.388689437308487,0.07743428952312859,0.1613055925303227,0.89023142385551,0.8772095363518692,0.04148247678241725,0.25104034934328284
9,0.005293358629803971,0.5181217538938204,0.7159918530055426,0.41027510330571854,0.09219914222779377,0.18974848103284148,0.869775044154425,0.8570320683484826,0.07519445316671336,0.30371269390987793
10,0.0065180222592203935,0.5081688808202959,0.723105568569072,0.4324987204274564,0.10192629797583899,0.14164141457568818,0.8530360218226438,0.8365942326750806,0.0678040550802189,0.2351758659140005
11,0.00919527908213582,0.4956444804750217,0.7300975927845083,0.45597323301149834,0.10788298711707446,0.18923915692424695,0.8380590393559303,0.8162160044229613,0.007041016089368595,0.31975879749243924
12,0.01171775937886599,0.48397125090899507,0.7347584087614742,0.4900106143607876,0.11208534800738675,0.20389703536752057,0.8245453179164892,0.7956171718045705,0.0016626391409279748,0.3492835161670089
13,0.014018262267052311,0.4723199563563786,0.7376426430912788,0.5212411046742638,0.11474175352557131,0.214178509579219,0.8154973102251465,0.7752591914883064,0.05934365000757957,0.35719682379071066
14,0.017330662096160444,0.45813288808210123,0.7412213076852018,0.5571007208522853,0.11727816820256907,0.2617521626682076,0.8075143805933199,0.7550383015308456,0.0733692597670718,0.41181862905230376
15,0.020039305110776486,0.443982848131792,0.743449523750286,0.5945600330313703,0.12108855465890055,0.31799396841664,0.7993849692764962,0.7350466356534425,0.12603200881918158,0.5013122746185793
16,0.02537275570605263,0.4283172875774166,0.7494866630056851,0.6327915957067866,0.1262261992203953,0.41704169468134034,0.7869042345488637,0.71557086716451,0.04942532022937679,0.6493809965613637
17,0.029749897108349674,0.43102727584562267,0.753140391048432,0.6632337846095822,0.1351870221920528,0.4029355830445109,0.7752445196959001,0.6973014673703697,3.0885472796924357e-06,0.5935905482229278
18,0.03507234262254526,0.4591063968038891,0.7568151123158497,0.686009169979212,0.1475178315391559,0.45455283322325424,0.7714165762483978,0.6811578552269378,0.006095924806947172,0.6082253499551623
19,0.0390317414667281,0.5003180353023808,0.760842717152738,0.7063666777977414,0.16642052433101917,0.45662205090654506,0.7686263222255217,0.667043656930566,0.07313158626197079,0.6397071553442816
20,0.04253072001307098,0.5396263036826986,0.7687399308039902,0.7387408420697954,0.1977599161554137,0.3851562070747196,0.7612893072349889,0.6543030828571836,0.004430155595884206,0.518738828044103
21,0.04854501076003059,0.5760438779190186,0.7795950017838933,0.7739061381457992,0.2279124851009325,0.3673788307864886,0.7458186580526515,0.6426178494355598,0.04587013901245141,0.5401115455398973
22,0.05633326356396951,0.6073286779393703,0.7900065475457463,0.8017482081090233,0.24795810543422167,0.33644503459561714,0.7253937918856225,0.6316544847116689,0.07730217075973554,0.48175506123540524
23,0.06235821563406477,0.632700355134719,0.7976587780008373,0.8301889357214175,0.2652223559854977,0.27574017573051063,0.7071684360451806,0.6210453115576726,0.019860660863203948,0.4376188744214292
24,0.0688441215702717,0.6519346871143908,0.8067456166084481,0.8601917519596544,0.2811321672640831,0.24988813230719534,0.689564676995546,0.6104188852895569,0.013646874221211375,0.3785300375872794
25,0.07461187322271604,0.6654884741257078,0.8151890275511416,0.888715162917118,0.29456470032635995,0.2304255837915736,0.6701631046447143,0.5993168266235204,0.029777330131879814,0.29957932818594823
26,0.08197854880463996,0.6768782303484899,0.8254327342156247,0.9143771853775051,0.3085366366485123,0.2499831661887585,0.6486170869755666,0.5877106959778412,0.025197323351814516,0.30211767260562616
27,0.08788615549828348,0.6830724743894392,0.8345317899730441,0.936113183800448,0.32419589515827646,0.23648671157068699,0.6255153784574367,0.5752182523099014,0.07246813484856862,0.2483869294329543
28,0.0986747725320935,0.6861402322001526,0.8489759021217076,0.9505561709804573,0.3422304575516401,0.29138927871156145,0.5992174784015477,0.5615320925154392,0.02160860263195031,0.2765237580054526
29,0.1123354200729103,0.6843482671361789,0.86557836851155,0.9593805938301817,0.3559420650778802,0.32653838233638305,0.5679279001893245,0.5463192213487132,0.030302194785758966,0.2756878687548825
30,0.12823993420524976,0.6765029017412862,0.8840400290222594,0.9658117776519171,0.3656441905017097,0.3741809669984083,0.534837369963715,0.5292694362508467,0.06304675393613071,0.29404102477137073
31,0.15167436801863765,0.6678830245905049,0.9091787887033397,0.9703037072134219,0.38585628629056556,0.45085211279460197,0.4980093867301566,0.5106794246849615,0.14805666628896763,0.4151730995580462
32,0.18356559078843,0.659402365598783,0.9399832649456394,0.9637464527428,0.41266417776910364,0.5410991094736654,0.45489186806294957,0.4910635376995569,0.1165002499087127,0.521884740981127
33,0.21810974480961764,0.647465183154699,0.9698981833018783,0.9563334766241672,0.4361821258587702,0.522405806935188,0.41080144813590197,0.4708030895985161,0.008150522603258237,0.4825094131485235
34,0.2595316961546017,0.6355527908990176,0.9985610305277369,0.9576523890143637,0.4627888845953504,0.5483817824571892,0.36647416306322744,0.45023642976758504,0.07493783279141038,0.4426202002790291
35,0.30223947297337844,0.6248874038576324,0.9696562410556695,0.968497902785112,0.4883531086879676,0.5128067023852878,0.320126842537087,0.42956750569946633,0.1501584120163906,0.33717944231940206
36,0.34169943964498756,0.6177556153827393,0.9452200741885795,0.9772583121518857,0.5149337755242636,0.4433450308125902,0.27795462603078114,0.40915676701379555,0.10821451603949561,0.312863063118247
37,0.37915317824857103,0.6122336027877845,0.9238109862740559,0.9800073573754285,0.5444004236852742,0.39964373014675547,0.24284151175827312,0.3891525156272891,0.016902727215062,0.33694812835188576
38,0.4193565566926362,0.6047982005664255,0.9034602289679485,0.9793860333001371,0.5700148510302504,0.4132033712103113,0.2115412304253434,0.3695083865448219,0.19456231171913013,0.3713639432300995
39,0.45131335567478625,0.5988806827838823,0.8887439784735494,0.9782049176219282,0.593070965475462,0.32035079015750495,0.18571846526207658,0.3503161166184613,0.0666831662755092,0.34328518151416193
40,0.47883646122966195,0.5933848937477371,0.8772021596294074,0.9758391195197098,0.6126197046926629,0.27653415064207193,0.1674095104615312,0.33162384898202163,0.021467900767123158,0.34609711826090156
41,0.5037599182727135,0.5882251156990189,0.8675174542561651,0.9738781442655964,0.629026211454224,0.252511234921468,0.15234727049719493,0.31338632911412584,0.05987915900826937,0.34011041404087433
42,0.5242564122969573,0.5835516012004025,0.8598010704270793,0.9734794794215902,0.6451478360258345,0.21459327045666826,0.13960594115150846,0.2955634578427181,0.024205463825239557,0.31690546135078607
43,0.546798103967245,0.5762079004649339,0.8515533206063199,0.9769837848977218,0.6608917343597983,0.23505776644130436,0.12741805262568237,0.2780525202234348,0.016765297785637512,0.34521887894957304
44,0.5701938408457387,0.5675282212496318,0.843398399784106,0.9851908425804763,0.6752492852153117,0.2546221084622024,0.1143106490461881,0.2607727705380813,0.056501470900906306,0.3795294644017068
45,0.5911805171074578,0.5561888415831933,0.8361994309219125,0.9939543900558359,0.6900546060608254,0.2428139477409137,0.10304555950979256,0.24363859140278984,0.05262233316780356,0.409876595291118
46,0.6091726851573572,0.5456837172443699,0.830333465138831,0.9999999169061637,0.7016358398703557,0.2126112269458252,0.09499727548568211,0.2266441995459932,0.04029986707296575,0.3771321970936977
47,0.6277473128731265,0.5400693061027998,0.82499014262256,0.9987534254607623,0.7073396142058385,0.2160413478541575,0.08901655715805885,0.209882199108299,0.08991955501243634,0.37375230201506243
48,0.6487997355071904,0.5387772553428095,0.819318397511435,0.989069113934612,0.7106280354618096,0.25003932330947665,0.08333416519875977,0.19351349048591016,0.0752989661766584,0.38152478426098757
49,0.6697049371268661,0.5410164907167545,0.8138023810478701,0.9744706748195489,0.7132432400759978,0.2869425740096631,0.07740284887518191,0.1775962684135816,0.07882095216058908,0.38895658340936323
50,0.6894120521531396,0.5455296539624578,0.8085801630297013,0.9547936728457318,0.7170116033476273,0.3256953133361925,0.0718496926926794,0.16211784139759108,0.05452239040717117,0.4346378943824865
51,0.706370294205795,0.5493793321559708,0.8040452530507625,0.9299325464483202,0.7206520367373661,0.3525448285162357,0.06816517200567732,0.1470648650238979,0.2111236645367844,0.5104676194131151
52,0.7248034343968485,0.5548999987838452,0.7989948753799009,0.8954523591182323,0.7258514022901059,0.44029041740778413,0.06568120767428777,0.13259239294661895,0.18721939613094482,0.6210789867421022
53,0.7435033318748464,0.5605835082383923,0.7936531000136056,0.8470393421639639,0.7371730449643831,0.5188140854797108,0.06294084583147376,0.11902335478451577,0.007546598735402793,0.7258553514554471
54,0.7641774801253132,0.5638224192636782,0.7879215495534178,0.7916350918107878,0.7569784287882115,0.5296013292233887,0.05890390609217695,0.10654916453731456,0.16374886691016158,0.7068907419232706
55,0.7889903987176413,0.5617655232339485,0.7817356705003493,0.7420749194709985,0.7872252209319366,0.4708434629515275,0.0511974588576849,0.0951700065715509,0.021399841604136386,0.578557163821516
56,0.8192307715738835,0.5569684293780717,0.7756581452955831,0.6899743696619081,0.8129111679768313,0.4725234704073501,0.04013227435977836,0.08492941716060692,0.014412663289041549,0.5726690217366747
57,0.8516454649364757,0.5498896804960962,0.7701547727818199,0.6276709774599328,0.8303236068385501,0.5008343868900532,0.029434448691377176,0.07584567548024891,0.012028251693637394,0.6127777030384698
58,0.8806568065516719,0.5435462730479572,0.7662374957432028,0.5581531194082414,0.8275662136964942,0.5221509507212311,0.02173442890605297,0.06795324449381579,0.050079183744450965,0.6357543600828213
59,0.8999023734649607,0.5378292288477372,0.7644826008707017,0.47172556548557604,0.8101311408132543,0.5148427551029401,0.017275618482927337,0.06125826977904133,0.05227606201097897,0.6164213283749832
60,0.9179002614494621,0.525474979889917,0.7631652293413447,0.40330426642532596,0.790658969423173,0.4679639517942596,0.015664941319604414,0.055499014780471236,0.2011607891074067,0.5583099490035189
61,0.9325796627989668,0.5115702147421578,0.7624827761520385,0.3522034186597768,0.7726265884958863,0.348764124121508,0.014788834193820148,0.050436374418306514,0.12533955626757623,0.4146270909509382
62,0.9460902807522552,0.4976872445143323,0.7618212361624047,0.31406871075198994,0.7599528404938521,0.2716091513250935,0.013034571231097946,0.04588448528031166,0.12622552835965203,0.334063984368495
63,0.9589792850846633,0.4859421509850956,0.7610635594742774,0.2946001609357695,0.7520848260381428,0.2023117675961487,0.01026283747120982,0.04162255634970343,0.0042505515495207865,0.21553626894657996
64,0.9737532736858557,0.4714861328497439,0.7598248791936874,0.2880095706355486,0.7494533789496041,0.22303933054134178,0.006356501245466778,0.03744477169718299,0.019434243789567655,0.22799512694843807
65,0.9846212784571529,0.45541674905035695,0.7589611960572211,0.2891658104636695,0.7478349232849824,0.24995594395387905,0.0026718396750186695,0.03318052800948113,0.012111055224584855,0.23212052267964625
66,0.9924368973413962,0.43883102350891945,0.7583798411163308,0.2976426107683515,0.7472603172241746,0.26751267396476475,0.0006954416543681214,0.028749801128526317,0.005272499747102047,0.21480180919475475
67,0.9983587658209898,0.4194771726142905,0.757923218473486,0.30708552219762725,0.7482649709338445,0.2783501655270287,0.0,0.024192844155704676,0.0194563207062309,0.2533495384913025
68,0.999999997844817,0.3971784710791199,0.7579959878723457,0.3089237929848742,0.7485222612416557,0.2914635747026673,9.809186201297927e-05,0.019626939642679128,0.02905890569952654,0.32557640468402343
69,0.9978098971803729,0.371463521246686,0.7586988741113316,0.29826558134802394,0.7464526435226837,0.3103657358265674,0.0008977087898802497,0.015201576153228206,0.07435635751288606,0.3856081983775298
70,0.9903521556440292,0.3421615530761995,0.7597266084952272,0.2759639199759549,0.7485094594569308,0.36750785788102425,0.002135227540590778,0.011071613388068736,0.07592174060490628,0.4928498200473995
71,0.9805965831400819,0.30639309934121595,0.7607930749785159,0.23630039411107429,0.7533546964664825,0.4332789638448388,0.0035015490052613418,0.007445677817604438,0.03674754050749738,0.5826093636207142
72,0.9651011109689743,0.26727333819036414,0.7625772056505589,0.18281692063834395,0.7560585376054368,0.4823938504803585,0.005429041037455064,0.004558812721049435,0.03327060452303427,0.5599715851609476
73,0.9547907935841626,0.21806975892315,0.76336017023829,0.1212738205352716,0.7596880837969957,0.4736954590539814,0.007494171514348775,0.002470711279545146,0.004577900273966274,0.5483177525295092
74,0.9414437541144037,0.1612569684153384,0.7644734780208446,0.06592072600657872,0.7607531148886675,0.47940571778520497,0.009063570403870425,0.0010841264798208295,0.0420142711670475,0.622950829170624
75,0.9217635931484897,0.10673845889752125,0.7667327437854424,0.025249406891225262,0.7556668164652295,0.44910305693139335,0.011083716003589332,0.0002639244033178484,0.019528952490231597,0.5986957050770128
76,0.8974499900033069,0.05772366709069851,0.7699412660851656,0.017081815497332405,0.7473317876591826,0.432538535219852,0.0136861952322036,0.0,0.035754353541078414,0.6173554084255614
77,0.8747355730930809,0.022213572343004473,0.7732817762828204,0.010696165853173751,0.7381643019325029,0.38672867816276796,0.0164703818720329,0.00025003725042540263,0.022845551049725417,0.5227491326376417
78,0.8537178651336855,0.005461324602997019,0.7769608989251692,0.005046696319313756,0.7259558118024687,0.3598463966712677,0.019820262412064596,0.0009710192855275362,0.00996138969306052,0.47355779596078884
79,0.8335175071384128,0.0,0.7811219321099665,0.0013594127464174348,0.7124663878052077,0.3474852197782252,0.02402908364635567,0.0021302414912202305,0.02531978255971248,0.47936365339698445
80,0.8141157611584704,0.0021092731252082553,0.7858299628361927,0.0,0.6971496561411332,0.32042512752929886,0.028967496309005178,0.0036673046319973513,0.036391492811992984,0.47240555526607414
81,0.7964145385272856,0.00832928784775143,0.7906037207613887,0.00011780836045791408,0.682049696484889,0.2773747932530094,0.03407265419030573,0.0055444828907849145,0.018751872981566702,0.45395997378666214
82,0.7727531417663428,0.01685224394086501,0.7966547843665697,0.0009501378682253064,0.6679957545415548,0.28632237865332244,0.03944409919214321,0.007738700955323179,0.01188021190086317,0.5009068542317261
83,0.7469808733756044,0.02696664320919368,0.8029787865674738,0.003086459524518626,0.6557953418345971,0.26509621713552123,0.045319346812204106,0.010207249976929346,0.0032276267069742707,0.4731219190617584
84,0.7187692917578915,0.038808456000480517,0.809665835512689,0.00678975542849385,0.644675397629874,0.2623909447336977,0.05132328162230955,0.012914005413506346,0.01740265074329531,0.46861760276731457
85,0.6879680503673765,0.052522065836960015,0.8169387207987242,0.01239239834885724,0.6340781999322882,0.27841532940816305,0.05778077219459942,0.015849435313940227,0.01992322462329806,0.4849633643284405
86,0.6599326631749572,0.06780740823280677,0.8237606385418261,0.01988148938720989,0.6230555733744177,0.2647137204413215,0.06429363994922807,0.01907474015651748,0.02424498893630894,0.4713466315974949
87,0.6349988391851143,0.08614212655759694,0.8300991519425028,0.03002045235410217,0.6107996990544446,0.2566731535216332,0.07036577226654142,0.02267303550281264,0.03756427120186121,0.4437451415410726
88,0.6082918560452281,0.1063090482192465,0.8370100041342109,0.04436220264183469,0.60113898330704,0.30568799574210104,0.07668245847413163,0.026756326021533074,0.0106729602282632,0.5129022836677692
89,0.5845970557739827,0.12539166823744885,0.8431086559386463,0.06048059511084976,0.5959939851808617,0.3426355221970105,0.08239367106307059,0.03152913680785826,0.035864492648653636,0.5931142868151814
90,0.5698917007906692,0.14676945054584947,0.8467707599312617,0.07435411640261849,0.589064597176198,0.36985297250078497,0.08574746937213729,0.03721242571698279,0.024538567384005065,0.6060663426089768
91,0.5609744118023506,0.17367315172709744,0.8485711090030507,0.08084569518756454,0.5785149461829435,0.4014174708745585,0.0859008252996059,0.04394467038206467,0.06442961155784924,0.6402583923286711
92,0.5568958122891849,0.2029194281920675,0.8488385525488599,0.0809371857193455,0.5668095456004135,0.38828653581655087,0.08329758659463998,0.05170111094054188,0.020546990032542053,0.603264604651416
93,0.5548387803467966,0.23188397678446585,0.8486361960020307,0.07766851943901705,0.5533604783614462,0.38447520419135095,0.07989179497151805,0.060397814006187024,0.01813670596448216,0.5941288735379038
94,0.5551543297116323,0.25910528335741845,0.8478321048146307,0.07342512880832712,0.5419489262633185,0.38011748566703923,0.07647650161679855,0.06996811714787786,0.0194549350325706,0.589127327404401
95,0.5577656162108937,0.28273196213038465,0.8465869425091422,0.11474617391261972,0.5331463845523647,0.36467801528912613,0.07243267125213056,0.08035772264770416,0.029691333584862086,0.5896067034078212
96,0.562027624438012,0.3018883997125857,0.844917754410298,0.17390261658604864,0.5298161007701914,0.32668577505876206,0.06778689019733077,0.09144993064644304,0.018383327265823774,0.5489478017492401
97,0.5667259965408339,0.3180660600666749,0.8429404967412812,0.22755470519753349,0.533157992052822,0.3035987790178662,0.06296283161566703,0.10313832641662668,0.03419644099856145,0.5400010293766221
98,0.5713331758903211,0.32968821523269326,0.8407160151761386,0.2763329482457607,0.5434194892670079,0.2544918825650191,0.05801052703904343,0.11529459751633754,0.035730199544312495,0.45870233282151296
99,0.5719425494660014,0.3375111526481699,0.8395748586940203,0.3135012480284047,0.5559315119718674,0.18111421564675653,0.0538490461117915,0.12769657656436828,0.04270984391581934,0.3739574281056083
100,0.5679961020042618,0.3431083155302947,0.8398070378903819,0.3289370710909685,0.5665298158312779,0.08020958619423268,0.051634945514443836,0.14008737011748318,0.04556523137460313,0.2192371317533029
