Frame,Center of Mass distance,Symmetry,Grounding,Arm fold,Leg fold,Kinetic Energy,Potential energy,Bone length coherence,Torque,Center velocity
1,0.0,0.7945917374149645,0.27632013247930626,0.3744322059616326,0.5102217274579414,0.5220292122533174,0.6295570465147615,0.08799564835798679,0.37171697640001283,0.6096156602688914
2,0.0013559980716800993,0.7711618648332107,0.25961116420328856,0.3746203152037854,0.5271531126735578,0.5220292122533174,0.6295570465147615,0.07666162380578277,0.37171697640001283,0.6096156602688914
3,0.003283464466409746,0.7443052563927338,0.23685919731350222,0.37339108027185125,0.5468668720957915,0.557802274558125,0.6101889460680949,0.06579329413850307,0.6565210474401311,0.6445818565947756
4,0.0052455259549329105,0.7136205767681192,0.20336183468357938,0.36844608092612174,0.5756283451547489,0.6075116109793467,0.5819337844740682,0.05575231597737788,0.9474078943695845,0.6765851434376459
5,0.00958566315550465,0.6807063256396927,0.15882029523284513,0.3547841811540352,0.6060364244679665,0.6727884122510797,0.5437403489455829,0.04695882228325831,0.6161079946612419,0.710254463241862
6,0.017290767279029555,0.6480991441602376,0.1061301808546119,0.32896298311244976,0.6423381051473849,0.7156415656643828,0.4993471727788205,0.03969648246345725,0.4471220648227331,0.6773174740087996
7,0.030883665371230076,0.6120725869932174,0.8694403292768842,0.30513394611236183,0.6765744453878687,0.6830129691909129,0.45569261725228116,0.033379514137983866,0.03372466937621717,0.6242255509612251
8,0.05194563871454709,0.5721000079412398,0.9182540777387775,0.28426701491637263,0.7064216330778557,0.6908302214168454,0.4149920920703422,0.02778768561241781,0.2204436946853899,0.6274612486337762
9,0.07745039056039829,0.529892219148473,0.9619051826297803,0.26573907239233513,0.7288082020922445,0.6666499445843124,0.3775974423730733,0.02284079302758022,0.23766966990663688,0.6207196260269165
10,0.10533519722067203,0.4850512794178297,0.9999999892559227,0.25164266878575353,0.7451391083338827,0.6426029635837875,0.3453480854306856,0.0183840986751174,0.29458940663805433,0.6007717691937629
11,0.13157621627664534,0.44040483938064606,0.9695951459769205,0.24263916359658896,0.7547361883270738,0.607985423527744,0.3184084842585494,0.014356748878517882,0.04923647305008864,0.5848573110652954
12,0.15369108687348257,0.39858124316399834,0.9462423343245101,0.23786555561936845,0.7593907913614595,0.5981738342892459,0.2975234806755883,0.010731102611164054,0.01398921509436692,0.5940361105755319
13,0.16955471280287432,0.3620660842633945,0.9295018916950994,0.23655433033398757,0.7611517218102866,0.5967019671007205,0.28311743660189537,0.007485226961106485,0.40454210500889626,0.5945476648202649
14,0.1856124845631999,0.327965156318599,0.9137062203312163,0.23812062545401352,0.7621747367911282,0.6627443894474,0.27200292770228873,0.004658055314886571,0.5087206730003452,0.6657398101732085
15,0.2040315828991559,0.2937496909790006,0.8990658186486815,0.2421479080758145,0.7608371629719334,0.7469707442432896,0.2615083287378764,0.0023565432128242274,0.7709891815259905,0.7282774627321565
16,0.22189454146331633,0.2592485940994666,0.8876748060391314,0.2428897917137485,0.7567016515873755,0.8629805227589817,0.2536397726420769,0.0007705735596117691,0.3920567339762154,0.8240854931763542
17,0.23806457096989572,0.22645591029052228,0.881452101096788,0.23932912232030926,0.7450069209558128,0.936628281983924,0.25020017662613675,0.0,0.18369995271072753,0.8606639228959693
18,0.2462857366906384,0.20000718061307318,0.884450287498153,0.23720418340157415,0.7235271570624341,0.8918293824148957,0.2522105147394838,3.4247235798140595e-05,0.028539776075033864,0.7913295318454006
19,0.2452380479384648,0.1810213053354454,0.8988264075957564,0.2366040029577962,0.6936399772652713,0.877403319210335,0.2614105288602474,0.0008935332954875451,0.09543789564285318,0.7383431459130314
20,0.23698531757247843,0.17181393851040566,0.9221619952461874,0.2363927811483103,0.6628804248192479,0.8414779730514532,0.27980744606006147,0.0025248421443049844,0.0911712129216013,0.6785265151878926
21,0.22304191823231623,0.1710911618516632,0.9529300873202987,0.23877680674128357,0.635420865919338,0.7966974380267632,0.3073095864087571,0.004877450749802741,0.09403831202661819,0.6227016899959196
22,0.2061138513246185,0.17587761091203782,0.988114140595483,0.24630526430704497,0.6112783406880264,0.7308638501751483,0.3398587588390158,0.007844619263698002,0.12113216931979218,0.5933159533959053
23,0.1879686696362773,0.1873748459892387,0.9728319968003326,0.2589503403001,0.5891864913753376,0.6701107141156531,0.374913260816367,0.01141181823429147,0.01604016106237306,0.5506402313329127
24,0.1690155758606465,0.2037962088694815,0.9284676791995619,0.2723267222992809,0.5701447809527393,0.6778009724767041,0.4139548461364323,0.015599436617931077,0.11922928822626279,0.548637537675003
25,0.1524344911266836,0.22490317186980838,0.876988278281844,0.28460717389713974,0.5490442912838676,0.7334793609162993,0.4597452406909192,0.020450887241695397,0.07653255917680998,0.5462657036672588
26,0.14578337381191378,0.25128097469671945,0.10149606183474555,0.29551686770160324,0.5170037540451168,0.7858607026921844,0.5128178333850194,0.026063021588268183,0.21404490273313978,0.5064419677003594
27,0.14573049396165466,0.28404221054693163,0.15667540494150248,0.3010774225955616,0.48040282158290265,0.8711743257984328,0.5727144891824877,0.032591233014864905,0.0797192115942424,0.46149319529544225
28,0.15439764071584358,0.32574555545906014,0.20383209628022464,0.2965033651138276,0.43559645075712755,0.9036141361422118,0.636746036365823,0.04017106821119588,0.11581172131716992,0.31380250728069037
29,0.16475319367372923,0.3653309062349055,0.2410221858128566,0.29090912391059986,0.3896159589452977,0.8336606561604178,0.6965094079311148,0.048635132737222184,0.1324540851854261,0.25785075885397696
30,0.1748099654143045,0.4031666917545857,0.2685293417812662,0.2866543116773603,0.3460944289601784,0.7821395699221847,0.7469115811973752,0.05790227223762109,0.08473780227420623,0.23152856811132844
31,0.1824196805712558,0.43830459619920564,0.28765148541981767,0.2802356594851872,0.30766218838529563,0.7467351484501988,0.7882481039734428,0.06790450811480608,0.2012401178996618,0.23014242474111224
32,0.18913410974194303,0.4681121896587964,0.3036779429626901,0.279690676582241,0.2721920468017277,0.6804432599302782,0.8229425289099753,0.07855432722245986,0.17266079582935623,0.25502784003973983
33,0.19491261252047798,0.49219750048618266,0.31919472194773546,0.2857751013435518,0.24067916566709288,0.6226388108240546,0.8537903723508584,0.089792871781537,0.10068814195988374,0.2783021699673467
34,0.1989482303760015,0.5104614563890585,0.33541445068621234,0.2980828288872646,0.21437586706237796,0.5829694232272726,0.8825128299560433,0.10155843739041316,0.017697074388332918,0.30112808097526156
35,0.20064911574591326,0.5255784036070583,0.3510392755267241,0.31297555649599956,0.1914261549008114,0.5841977276757266,0.9096692267154515,0.11388688543499959,0.12733878965948503,0.3165473930186352
36,0.20099629105757078,0.539627293169461,0.36251987096869215,0.3301778664236718,0.16790708470064536,0.6216244281198089,0.9336314119260435,0.12679436766328314,0.09876732740108606,0.3589239690976468
37,0.20557390854418311,0.5560545116482126,0.3615146853576563,0.34991134394602397,0.13221176751201988,0.6757994171458872,0.9499087692867267,0.14035116172131362,0.22047108828392215,0.41213233358993423
38,0.21045713736055466,0.5737446046401921,0.3478960721684839,0.36810172628398263,0.09159995219780541,0.749340610478217,0.9539113330488976,0.1546681381553796,0.06581619411127705,0.46329446143222647
39,0.22204230836366465,0.5897146904411271,0.32049759282990314,0.3813911405011023,0.05287533530850944,0.7967835977250085,0.9429521956333993,0.1697546973928346,0.3646010985580246,0.5031037637568984
40,0.24167477831536052,0.5972573832629767,0.29033651809610567,0.3969469497247365,0.03038222430751281,0.7217811545473926,0.9203128119715286,0.18553202316225498,0.22106661866838612,0.4895428935338862
41,0.2682208623676727,0.6001693870724023,0.25588492258521806,0.4117078710154015,0.03889777298031138,0.6795396545031572,0.8900465151380359,0.2019926592061685,0.22332091628223366,0.4844056015307295
42,0.30013312401101233,0.5995379063211098,0.22081936477955622,0.42327822888238265,0.07968617167318401,0.6312674686401816,0.8530990474003823,0.21908745073903307,0.3126769500310004,0.4738250690163054
43,0.33555710000176875,0.594067052884912,0.19038275106939903,0.4356799600349409,0.11508226242723191,0.5606451776519445,0.8136231394046463,0.23673893963544537,0.2333386645440397,0.46778298418807907
44,0.37250328557617385,0.5831527504721389,0.16579932438168993,0.4521167641263843,0.14644849912435334,0.5054370743426041,0.7754489385674428,0.2548496524963969,0.2637778562701496,0.47881473532363594
45,0.4085625446166141,0.5674517468717775,0.14686879454692325,0.4727456525857771,0.1741637366109617,0.4442969205960223,0.7402197247609159,0.27330605585355117,0.09168563486006304,0.4689841370596022
46,0.4423472838863037,0.548405888349488,0.1312435738633167,0.4961775775840393,0.1962567846482836,0.4189168243619569,0.7073008150184452,0.29204873036717643,0.04686705335501212,0.4745142872155064
47,0.47817701297990656,0.5264906243513819,0.11663477526363662,0.5218904291327042,0.21720364428430672,0.4166377681041534,0.6744465840748359,0.31103553076369994,0.009382196005785704,0.4893655518902951
48,0.5250930581968399,0.502750474057287,0.10078838449183197,0.547751219723543,0.24534433609812978,0.4461961456716692,0.6389214493699966,0.3302560744185027,0.03303047701729871,0.5100430538930586
49,0.5865283403463013,0.479240884626688,0.08500433739834315,0.5714767257119016,0.28514835226946167,0.47396337097676955,0.5992488606117308,0.3497007521515422,0.06248648281558438,0.49589659587109086
50,0.6581137625908231,0.45844417205941723,0.07039230768917366,0.5896444722732906,0.32858137393213704,0.5243122693710164,0.5543284176224101,0.3694010145221157,0.05143941515561419,0.5049209454471609
51,0.7319197040091696,0.4431236545288301,0.06238121582680214,0.59838639355196,0.3781550831722025,0.532796095807495,0.5071847901468052,0.3892480713521761,0.20580375623366856,0.45821612205359136
52,0.7891430826497904,0.43023299844199064,0.06421328065319512,0.6071504310183786,0.42491559048050176,0.48028259888305386,0.4657415967958346,0.4090598265312385,0.11164326577943372,0.4135497422407624
53,0.8230174630471324,0.42109508952967717,0.0726631597588189,0.6161359034922472,0.4653766730360015,0.43190157606700413,0.43266700371584044,0.42871596833303277,0.0809658749763232,0.3760261251944964
54,0.8335296902879349,0.41541326668112555,0.0855977415980792,0.6216648341550199,0.4996343204045015,0.3920721377049652,0.40617637860944916,0.4481126218261714,0.09738362737579105,0.35077561690293974
55,0.8284251785377382,0.409676116099826,0.1016242635056824,0.6310876906304514,0.529107486511054,0.3455610468223171,0.38539011740889917,0.46712686004664133,0.0551352471346,0.3188810572354207
56,0.8169803385115538,0.403649162459578,0.1184807686177887,0.6429599564453261,0.5540443479941567,0.29973437759087157,0.36999011186200914,0.48567514872567813,0.010018708237863876,0.28905539894348004
57,0.8049365513039309,0.39774650828475194,0.134741488035117,0.6583222888682292,0.5750771938581708,0.2718290287382933,0.35845726980972764,0.5037023922147542,0.005708488784911084,0.2777008650048338
58,0.7944094244931443,0.39224427575330767,0.1497764068990151,0.6753790337520061,0.5932739138472373,0.24694295411425943,0.3493770635457432,0.5211796332792126,0.012613716368179644,0.26447479671556967
59,0.784098035918996,0.38650050557335264,0.16563049569263125,0.6961892625283762,0.6120808416828659,0.24628891634181474,0.3418908715321513,0.5380797519373065,0.014608364206604657,0.2653249755300986
60,0.7717419126596886,0.3794888663703053,0.18584651793223209,0.7197667231059076,0.6351802096059577,0.2664312296638874,0.3350352755345595,0.5543982184366333,0.010020040360507455,0.2616343798977551
61,0.7612796774494263,0.3721482805764966,0.2087714071079602,0.7448227425502726,0.6614718754420044,0.26561461577819645,0.33098461702669313,0.5701124645191391,0.005203863637182468,0.2768972321325457
62,0.7519371075178944,0.36682375359677866,0.23317477989754776,0.7704033255694094,0.687112958569005,0.2721716466935114,0.32983955234333645,0.5852288342430304,0.005214456032608405,0.2741756303126258
63,0.7458639192461444,0.36351041689153646,0.255214422310852,0.7920576609980164,0.7098230330940054,0.25542739345321464,0.32925462730570976,0.5997322787880377,0.015150016944283163,0.267577311776919
64,0.7422041787700732,0.3622567136165699,0.27343533098783296,0.8087351169294247,0.7282472362368076,0.23234101936719692,0.32930106004565707,0.6136319693718355,0.029866347059471957,0.2595833171691459
65,0.7404485153322133,0.3630054619594023,0.28721055483102764,0.8224959204773563,0.7417535508267422,0.18960516746126285,0.3303778294548126,0.6269041078060709,0.03337543510279976,0.22583127215258686
66,0.7400329088370878,0.3630547244328916,0.29793877806096936,0.8349965640007595,0.7520601708774984,0.15496951975505233,0.3321869954076003,0.6395775766724434,0.033784859710305974,0.18611697806457533
67,0.7405374616744199,0.36265705816772814,0.3054827107067232,0.8461981860705774,0.7597600360303747,0.11441534513812472,0.3345305754900056,0.6516531614620733,0.024655052517176982,0.1455890026501577
68,0.7415380374299327,0.36053032604693536,0.31184288584124786,0.856983199408229,0.7654626740855435,0.10063481525497286,0.3366709958465633,0.6631748703589921,0.02015733805716241,0.12300849256399178
69,0.7425479449207011,0.3589478985496369,0.3154785405370991,0.8672488459432995,0.7679129730292549,0.07695228339327412,0.33828281983559993,0.6741531314952082,0.005930752155829986,0.10376528051292457
70,0.7432713512324077,0.3575508796778197,0.3172497806928246,0.8770948154561168,0.7672750608690344,0.07215497476506204,0.33932650899983513,0.6846553223959223,0.00565141294297294,0.09046525270277575
71,0.743710874872837,0.35661586122975786,0.31689214450224684,0.8869540432451256,0.7643204621425673,0.059141265934448295,0.33978923235123293,0.6947115107909884,0.007239655646162719,0.07303462619712806
72,0.7444478057948494,0.355299105469595,0.31641865179611217,0.8992227726057856,0.7619767396092081,0.04538902500372688,0.3401673621932262,0.7043936242749123,0.005708620642341391,0.04011826167282754
73,0.7451883346097574,0.3541897814274433,0.3158694919123727,0.9082844563458384,0.7600514718940582,0.03866854221031379,0.3404625016175277,0.7137128574818654,0.007162632866978256,0.030410482656249013
74,0.7461432633276182,0.3524809718975198,0.3156235285298454,0.9162797997828773,0.7593075705126733,0.03183989541776859,0.3410720529136979,0.7227327985084823,0.005853228322893706,0.014210958727840445
75,0.7463269484462748,0.35250615554903864,0.3131888424742566,0.9243635605996771,0.755690602165531,0.041192483298831406,0.3417464884417123,0.7314924362969508,0.029811460088137884,0.013854032522727796
76,0.7453620769474996,0.35380630640271415,0.31095358410077967,0.9291901190871769,0.7525401768516616,0.046783879463019824,0.3426921236547102,0.7400271600439606,0.013884916021036175,0.021940323525253245
77,0.7440775316830494,0.3564000706118214,0.3069922309938058,0.9324283942713236,0.7471663076941237,0.049753033985407626,0.3438884426338896,0.7483431129315464,0.006880916828468072,0.02887244388727395
78,0.7443021975944297,0.35503758072874264,0.3041611611796584,0.9389469063603828,0.7455757942696811,0.058167688145169434,0.3452124250227728,0.7564702191931248,0.029566526728814095,0.06213022020253277
79,0.7435533984125338,0.3546236705476333,0.29997299963406276,0.9447033419782132,0.7411184864420425,0.04730025907900274,0.3462079228618809,0.764418926514318,0.007355893164388535,0.040433182137674356
80,0.7419470675294604,0.35493354332411403,0.29489885756811146,0.9481209047574181,0.7355877533589408,0.050951145608275926,0.34681941805067174,0.7721880907195902,0.008408104216327927,0.012079887427678633
81,0.7397904613706454,0.3572696634387809,0.2902541054947062,0.947894965864251,0.7291666378408568,0.04138821323814323,0.3465721484145292,0.7797884506382015,0.007697430699075106,0.00955427097236468
82,0.737405768032108,0.3597268764835427,0.2864265151714158,0.9464793743753537,0.7233034410307257,0.05528486191641975,0.3451529733309912,0.7872034847278323,0.01548226192133119,0.03933166018933149
83,0.7351387309332998,0.3623363542591999,0.2836300607095277,0.946265840439766,0.7178439190089334,0.058455343875769845,0.3434641282418591,0.7944385494552942,0.006673195231035689,0.05699249082644868
84,0.734541080951516,0.3642961671321026,0.2840610083285607,0.9472722217532578,0.7172687318432779,0.0447429005091056,0.342651582725552,0.8014836228749405,0.006218523039233747,0.05921463249038022
85,0.7352403471039661,0.3641165310758813,0.28670372119430493,0.9500593040953981,0.7198723544742567,0.04215388771935528,0.34281136888969926,0.8083498195912021,0.012034349506894765,0.035077388278236345
86,0.735969866471973,0.3644241038995252,0.29373970025701895,0.949810357749408,0.725942361048588,0.09135318018175576,0.343444381637333,0.8150322249021305,0.006035260705506958,0.09749117279960329
87,0.7360980518779673,0.3656353762353015,0.30113143606016957,0.9464815332659332,0.731618658633029,0.09765549213795742,0.3440120873892077,0.8215347531024221,0.01986620564168482,0.09962746815687741
88,0.7352942530747816,0.3669053575639464,0.3048777723472162,0.9424112425950731,0.7334383349831991,0.06548168379659133,0.3439945885479526,0.8278740666009322,0.0241386705605722,0.07567345326951443
89,0.7343495922674401,0.368083499397729,0.30719050011076215,0.9380129538098028,0.7338301021820852,0.046908728530059854,0.34401633009604715,0.8340770945568906,0.013022926971409466,0.053220171696379055
90,0.7354707322582037,0.3669670078376355,0.31064145377492336,0.9360078123030912,0.7383528018300692,0.03129680798418104,0.34484042831031586,0.8401520944239869,0.0062874175030673204,0.024002947228856205
91,0.7365124122313628,0.36548881530217614,0.3126513712256422,0.9360291795690979,0.7417782770913716,0.019435316475333406,0.3459787809758044,0.8461343178202827,0.007044240364147768,0.011537389055314822
92,0.7357212038135161,0.36623939503745273,0.31149494297913827,0.9344371350627267,0.7406791284530386,0.02382293703218102,0.34607797399060036,0.8520524529898972,0.0060724462916352355,0.03678121085659589
93,0.7350070343232696,0.366929773335494,0.3095970330330706,0.9330324311813495,0.7391941636525015,0.03306306003671463,0.3454945440156604,0.8579206226041091,0.029360800914630104,0.051214366558637175
94,0.7348389033278939,0.3674725567525629,0.3057199719776374,0.9321848652154127,0.7365033971231295,0.06113611639260288,0.3453943936177834,0.8637589307994015,0.021276414049436334,0.07215375900125627
95,0.7348123683574317,0.36797011260884666,0.30053559887360687,0.9307602353303497,0.7329330650103226,0.08995022651100935,0.3449878171231078,0.8695844570346355,0.010608911383791116,0.12639553941800682
96,0.734898352887683,0.36889274868868616,0.29305827085135205,0.9283783079864018,0.7270342163842584,0.10732425442060776,0.3439897465234915,0.8753951785162516,0.015510482785022336,0.1316080312151371
97,0.7354078620624522,0.37028106109895464,0.2837369190357095,0.9256023498105888,0.7197686466169132,0.12474439955548314,0.3438129345166944,0.88118611322991,0.005857958033347659,0.13613349043055287
98,0.7349762522738716,0.37265697352405136,0.2733038982074068,0.9228573144862623,0.7104803069690893,0.13073115269471722,0.342673481802598,0.8869525236836648,0.03799013177997442,0.1569116297154583
99,0.7358509115512029,0.3755712763948864,0.2591227774984317,0.917452932737679,0.6984655556136405,0.1701553420551737,0.3411128427347084,0.8927040461678724,0.006013464535038803,0.16263631370469728
100,0.7372062943923551,0.37994716966832276,0.24185586998938452,0.9112566509527138,0.6810618187960132,0.18645619015168965,0.3397106161242031,0.8984254472157331,0.006524803245666659,0.15371010962578258
