Frame,Center of Mass distance,Symmetry,Grounding,Arm fold,Leg fold,Kinetic Energy,Potential energy,Bone length coherence,Torque,Center velocity
1,0.1810449806588893,0.7297705088056023,0.1747106894756577,0.5967655273400231,0.3282342499645208,0.01736116545935871,0.5840192632833588,0.5096948235787198,0.014576625807328042,0.015670560932327195
2,0.17911355684822478,0.7311445076755058,0.17567176148750882,0.596521665926939,0.32943937252519306,0.01736116545935871,0.5840192632833588,0.5047968285323299,0.014576625807328042,0.015670560932327195
3,0.17572865121540504,0.734136781378476,0.17814095126817936,0.5958234734533734,0.3294511280973106,0.028681338955071942,0.5861736304502079,0.5104091136097978,0.012158678794941681,0.029073232936022708
4,0.1720854848310442,0.737167628565407,0.18152154457239944,0.5946790701800841,0.326134967619293,0.03680562235583985,0.5895026384450859,0.5143246567282002,0.033553764801240206,0.0501209261785586
5,0.16713194063031736,0.741194926648884,0.18662593377565695,0.5939124793917664,0.321981326521507,0.05049281235671945,0.5940666673149321,0.5264065472343709,0.015510516912275334,0.06493962913269717
6,0.16266973253919326,0.7461939401209544,0.19168523645447846,0.5934977481217522,0.3151522060426408,0.050576000026834655,0.5991473417890714,0.5430400859566683,0.029808550100208914,0.06757848154856393
7,0.157125228066835,0.7511809446286172,0.19797146687076694,0.5934950141999624,0.30957131465264087,0.06133555862493487,0.6044710508457252,0.56198912184682,0.027418699908635935,0.08147084863831719
8,0.15221147711514718,0.7559033938849673,0.20427195228574793,0.5939296957198714,0.3020733588495547,0.055856161300646294,0.6105167786687526,0.5816462214598919,0.009657993585392854,0.06650392211564833
9,0.14706832471663134,0.7618680736059835,0.21053704457540373,0.5942069567630671,0.2954394858887795,0.06093887562126059,0.6170356914027453,0.605624823624563,0.05921954185148227,0.07188574257891368
10,0.1432522400960159,0.7665376446110701,0.21549707137047355,0.5944643907753788,0.28916231288513194,0.04876643728768829,0.6229082041052881,0.6310658309419552,0.00967630844561664,0.061946857414315715
11,0.1402531853948848,0.7695484865439244,0.22009471573449507,0.5949865411200163,0.2843554739305288,0.04987392243289575,0.62779257047981,0.6574920850814492,0.027534130890603966,0.06823236317131791
12,0.13791775034119322,0.771380805412771,0.2234579383045941,0.5955945242546942,0.28206506492186345,0.04519642684352567,0.6319302108652053,0.6834012267704529,0.021774374977606193,0.06788458865777182
13,0.1360676968631129,0.7707829811692452,0.22613343864491336,0.5969255972796692,0.2852968770477722,0.05133107346284102,0.6351795378231293,0.7091176931463664,0.02992191418081185,0.06424521085760794
14,0.13431825110180107,0.7715705066845733,0.22899846937499183,0.5981001943506872,0.2839875375440776,0.048408795388416595,0.6380112325069274,0.7349561231064249,0.03487957793153099,0.0710384473516013
15,0.13466114539683524,0.7709429300035212,0.22984792474708046,0.59893233240693,0.28460646698088676,0.04020398685428601,0.6394021212389759,0.7625624493854705,0.032412752492195884,0.0499352478115005
16,0.13443023437170543,0.7712188929235774,0.23097523040797058,0.5998103645225247,0.28457196542377483,0.035070111972985804,0.6397393671411292,0.7908953694386619,0.03623377581839278,0.05197683251841593
17,0.1335043072778326,0.7722084658932591,0.2326439205549194,0.6012652893433205,0.2858282969004049,0.02917720401552435,0.6406202650478638,0.8195396557861131,0.06748720501136359,0.03839959678915119
18,0.13319086106510247,0.7726224314171284,0.23315671358645781,0.6019170098572691,0.2881943322762463,0.014228483836690274,0.6412403922821163,0.8478255621679351,0.10838840618498487,0.010158640046036902
19,0.13705734137558642,0.7723933003213383,0.2285259568969018,0.6021861736385645,0.29199847260777057,0.04477703219485113,0.6383678245821875,0.8758370170260191,0.06032898829544928,0.06367340047154271
20,0.13944769376107077,0.7724332619617583,0.2255154640873079,0.6018379495675691,0.2941521048189681,0.031197238991334322,0.6340102749576301,0.9013772910408548,0.009218922721686297,0.05290503991023439
21,0.14231471441174656,0.7721314734797884,0.2219627314917334,0.6026007810310726,0.2985828074950405,0.03736062266549775,0.630882572265075,0.9238827338185988,0.036822948124816963,0.068641204044565
22,0.14457874698683168,0.7715511690148847,0.21950964985958554,0.6042868144142357,0.3024993784329358,0.03407777922379105,0.6281745203928125,0.9425172985749122,0.009507953706487741,0.0702042745236457
23,0.14589222052170975,0.7714749001016631,0.21727825382139043,0.6047596603376325,0.30574750930741273,0.034714631621631326,0.6261577685173366,0.9575933004673218,0.05815015796094992,0.06614453940777323
24,0.14887716261037093,0.7726032116826954,0.2130744750712438,0.6041639045568511,0.3063985209108653,0.0513604818784904,0.6234711935930289,0.9698845092651472,0.06167685371638722,0.08244051430695423
25,0.15057093546530476,0.7734528849412527,0.21087816669411624,0.6036157288638416,0.30578058973956085,0.038351982001104554,0.6206299814560978,0.9789777514421972,0.03448345285243954,0.06570690379921845
26,0.15087441284384495,0.7749119864269823,0.20950042107048214,0.6034579992611395,0.30778377793562867,0.030615191636738235,0.6191862156431798,0.9860351905743028,0.009363230038613592,0.05372127123008044
27,0.1511013749960186,0.7766556969124426,0.20827946006818207,0.6034514837694049,0.30946431075506453,0.03449525031592536,0.6184076971361897,0.9915757817901913,0.02722420905888876,0.059055980204005126
28,0.15201473438203267,0.7777129373482716,0.2065016784526675,0.6030061526788074,0.31179372590939775,0.03100894289865526,0.6172299802919432,0.9955271591689802,0.03298680849008562,0.05670903390771684
29,0.15196301329658723,0.7789754298562911,0.20586370616832475,0.6031174296347204,0.3141405971249458,0.024636345832881976,0.6163277026108969,0.998406398971421,0.011339514261285478,0.047681213850896166
30,0.1526237490597305,0.7799933242522036,0.20421151109129154,0.6031488741599188,0.31678974023645495,0.030755711222121337,0.6152462696510079,0.9999698896907402,0.026088315973106253,0.05474963014918502
31,0.15262175377649306,0.7801045828471123,0.2030183880650097,0.6036272077965558,0.31954089109455575,0.026209252221715,0.6139163185099836,0.9997446053862219,0.050394762595467144,0.0373245679578524
32,0.15262451518263137,0.7792174504312342,0.2019252944009817,0.6040458049042385,0.32342951475683296,0.017404596585396517,0.6132686107451721,0.9981553908539628,0.12706174337160683,0.02563336253058294
33,0.1574981056107596,0.7753967091718552,0.196536517973808,0.6040630461330144,0.3260968180961772,0.05962838094251726,0.6106525425320636,0.9951785092983437,0.18203077212020724,0.10199107364636471
34,0.15672080930859048,0.7759581985713844,0.19706102046855814,0.6046481369379648,0.32700841700311334,0.011935335453182974,0.6085606997965947,0.991548163642607,0.06569388540946253,0.022082952692611953
35,0.15976467211686246,0.7727334816502512,0.1939301951057152,0.6041082494549253,0.3270220517694312,0.035289447649104015,0.6077409302620207,0.9870421236496069,0.08340664580895563,0.06374188058182581
36,0.1605788034934614,0.7704989186857151,0.19277989816836247,0.604835251039356,0.3264345565308502,0.017100143145018062,0.6062379781483115,0.9811926780056016,0.010709270257468049,0.01791052602144389
37,0.16229013211161786,0.7676709541330619,0.1912976023114605,0.6048921754029164,0.32609814083612165,0.018069540904697333,0.605168346643808,0.9747214297878144,0.028813580572644843,0.024940932847142546
38,0.16319086255132195,0.7656083202009275,0.19018182283522755,0.6048343106408944,0.32504677854955644,0.013017573717595194,0.6039259241958462,0.9677522701053419,0.020972880513799988,0.015381237337140204
39,0.161154652554496,0.7655661093913727,0.1922223648052134,0.6056953635811096,0.3254412901086893,0.024385299953641335,0.6042830465695117,0.9603674044124333,0.07348882004129782,0.046032883298537275
40,0.1614396781977567,0.7639311891714923,0.1920317143798426,0.6061032035672441,0.32629036072793277,0.006798688774235924,0.6050390841809069,0.9530059130080104,0.02113453843461176,0.00432653460502772
41,0.16170234128373953,0.7633378728614174,0.19176308911162349,0.6058297099326116,0.3263541746054094,0.0031494197842487966,0.6045947056502726,0.9461688840347635,0.02189397980000546,0.0028887045965701468
42,0.1630720819411171,0.7620912055930893,0.19037035537507843,0.60564848293785,0.327921135385033,0.012782701799209192,0.6034798828843518,0.9399346761774408,0.04568581662518635,0.016743776053546218
43,0.162649190020236,0.7617130757683548,0.19058277521988107,0.6058763404589463,0.32845573582581883,0.003085551250964539,0.6027085525735454,0.9339702026363959,0.009681992371654659,0.010588708884788436
44,0.1637549787070143,0.760432917312691,0.18953315930186543,0.6062627552166412,0.32996568702894097,0.009253793624252755,0.602069676823728,0.9281786509384301,0.02536076709789015,0.007032863372246434
45,0.16419255905648822,0.7595664566946608,0.18920091601091,0.6063192831336994,0.33086950219126915,0.0038821867177078104,0.6010730347182157,0.9226005540528636,0.013098586910378096,0.0007809938954853973
46,0.16459414835509611,0.7586136859888725,0.18908048163624178,0.606202371607374,0.33098158824813906,0.004271800177123503,0.6007198441131317,0.917115135002983,0.016242888708368788,0.004740214473796525
47,0.16484734224704364,0.7579454640990474,0.18878519952046774,0.6056606170242177,0.33178386875273524,0.003099718343238226,0.6006100576267658,0.9117663825408387,0.015840194232715005,0.004220960414427076
48,0.16535200907402064,0.7574966855585538,0.18842477206066885,0.6055979529310478,0.33108866888649663,0.002027930512503542,0.6003540028172453,0.9065778783432322,0.009628298974957891,0.0038339874466977756
49,0.16619605516854125,0.7568437692653633,0.187586761416102,0.6053516382725432,0.33191140934337315,0.00715440072885263,0.5998107217563833,0.9015672059346533,0.011014772976726548,0.012855319125441663
50,0.16786083036760868,0.7555958395342084,0.18630411699803093,0.6052253130609204,0.33187677822516015,0.01391402605990765,0.5987939452984499,0.8965771424454131,0.0513419852567206,0.021350555009648792
51,0.16817213077463325,0.7551313033723096,0.18603901475091728,0.6051405156409547,0.3317770104295975,0.0024869944798670317,0.598060867006857,0.8916445441455068,0.009603589970519799,0.006085308669188447
52,0.16886488844238703,0.7547722033850871,0.18530306989698914,0.6053362227924054,0.3323939812736904,0.004852712690385719,0.5976081524083032,0.8868232756819157,0.017204382532434757,0.007117717510684961
53,0.16942719352095073,0.754338002944288,0.18471199655834478,0.6051835256307929,0.33332361617434797,0.003917008208230231,0.5969157152111932,0.8820833977657955,0.0244171087487659,0.004827928428505341
54,0.16930505032026943,0.7541879747152942,0.1846674598695725,0.6049842033226918,0.33405205042964237,0.0009671317948667064,0.5966612916292134,0.8773913447542927,0.01307646551622596,0.004085165943438418
55,0.17028627433431187,0.7538192943118696,0.18375355153910983,0.6047152545680026,0.33413815005052727,0.007013139016371836,0.5961917324796562,0.8728669150653979,0.03507600161342313,0.011596738932321347
56,0.1704852085260643,0.753429764347584,0.18367376427499935,0.604681764394225,0.33340129763990967,0.001651846743198466,0.5956687913274067,0.8682411249839449,0.016797102984653516,0.0017352898450301373
57,0.16927663171802643,0.7536938907273727,0.18480941929226646,0.6047087494780595,0.3334231030480371,0.009916244659453705,0.5963323905241762,0.8635501870611976,0.04125962664545266,0.016871892164720823
58,0.1689993232910341,0.7539480851973808,0.18519774582093512,0.6045140846226578,0.33231846431697837,0.0017502669797581374,0.5972614406456138,0.8589934129676506,0.01791070466517299,0.003410152335595619
59,0.1677748378561458,0.7546923654470932,0.18634559904422615,0.6044206628590976,0.3316089608361844,0.010290861061698698,0.5980987494651023,0.8546054755277471,0.03302898067945366,0.017439216836562108
60,0.16731554641252,0.7550590429000195,0.1868885515801413,0.6042308948390827,0.32973447018396856,0.004999128788543298,0.5989344826479512,0.8503288096300575,0.017648309094575276,0.009575498785739418
61,0.16718639501560073,0.7549725237264914,0.18712903340808446,0.6040764998547404,0.32892660760007586,0.002723868998942541,0.599233834830795,0.8461702104382077,0.015946978825259066,0.002090684016526316
62,0.1672026101189781,0.7550640160132448,0.1873754005140593,0.6040082402014917,0.3272932993025212,0.0026153982880196525,0.5992325627003829,0.8422229617910024,0.009885070699713429,0.0032922344402728575
63,0.16650484080977293,0.7547090192945872,0.18815806103513136,0.6040183075829478,0.32725291573245163,0.006466738294466593,0.5996042327185347,0.838327187683827,0.03447336101766743,0.011554104612211825
64,0.16631566647088136,0.754658812041069,0.18834150250402054,0.603921698048248,0.32691420675578414,0.000881024140053879,0.6000307021083905,0.8345889240027928,0.009693724690033309,0.002793698218861085
65,0.1661992063306473,0.755007762810162,0.1885285891797182,0.6039514588974946,0.32756282350886856,0.00413834998166459,0.6000963348011431,0.831292603392033,0.019416636290774218,0.0065118928828694685
66,0.16653753073831404,0.7547031622679453,0.18820153878114362,0.6039277414071629,0.3284080568376341,0.0018176447535370244,0.5998732866240319,0.8280726516692332,0.00991752166731886,0.005028282447726019
67,0.16670347610395803,0.7547062462583511,0.18775631444340787,0.6040439769573427,0.3320765032176866,0.005544327229937031,0.5992120022780655,0.8252599006335403,0.08993159756706826,0.005600544974846992
68,0.17008488870815494,0.7532511634492587,0.1845569429011376,0.603816076103624,0.33379855032935407,0.03141295950907286,0.5969305013746584,0.8225441933485073,0.10972717444957748,0.046943494145183826
69,0.1708142760944981,0.7528800162165373,0.18373056026264714,0.604221489327165,0.3362749480386797,0.008341323382565205,0.5943794202070415,0.8199240665413028,0.01583626222214677,0.01732733422861702
70,0.17117186699928252,0.7524839084268582,0.18324658269275151,0.6045976468788357,0.33733484126257096,0.006454987460607909,0.5933648129678424,0.8172073753676018,0.009435286588131234,0.009572894556044244
71,0.1715128755057169,0.7526862968364562,0.18271882191258598,0.6053576666361583,0.3374261528779922,0.010104142861265295,0.5925358532934137,0.8143738377151976,0.03204787331995699,0.013859886372287826
72,0.17169980069658256,0.7530132896147788,0.18238731173584893,0.6055033092567904,0.33743467954058604,0.004064221918927496,0.591870391909683,0.8117307592319335,0.009247571681721745,0.008018179993571312
73,0.17121919500355356,0.7539784896380866,0.1828138823895814,0.6057320789999863,0.33641662656876653,0.0072612462704988,0.5917737759025608,0.809160560190068,0.012639600980754194,0.006966889004614673
74,0.17094680204430796,0.7547682522408217,0.18278070897119544,0.6060190812392707,0.3361874311612747,0.007793159226936409,0.5918213072689629,0.80664163816553,0.016030456177496554,0.010008125687477932
75,0.17041804034692634,0.7555048424482498,0.18317895290609734,0.606198715160134,0.33693917070961676,0.007493667644184514,0.5917664069322183,0.8041966455083557,0.014710181625427128,0.016611111780484328
76,0.16981025944419956,0.7563714334975561,0.18372972532700954,0.6061067795726365,0.336343949277208,0.0073405772865457785,0.5919461049390421,0.8018166049010693,0.015920921728276298,0.014143424442213833
77,0.16937269232307553,0.7570533647388993,0.18389371890482523,0.6063065924136312,0.33787415549353206,0.006186586557408153,0.5921369153133186,0.799466293555581,0.01882894014493928,0.013060667884619948
78,0.16912804488448968,0.7573484192840283,0.1839112932817847,0.6063664855821578,0.3400210758462187,0.005752730626251422,0.5921232174413856,0.7970666450888456,0.014190569715424565,0.015801356645041422
79,0.16840488654021807,0.7578012772844875,0.18414328320336398,0.6062339474575091,0.34264959890021013,0.004445915528750472,0.5922552264202008,0.7947161799703977,0.01597877678555294,0.00837389234582892
80,0.1687372423732363,0.7574070858808999,0.18370357758655062,0.6063575612950847,0.3433212898123534,0.004981856037399245,0.5922646125315411,0.7922917453375037,0.021945087691212714,0.010423870541340793
81,0.16847899498463173,0.7572391703603759,0.1838423805452482,0.6062546439516925,0.3438466691719715,0.0009475811253248209,0.5921972508640628,0.7898072548012807,0.01591591815217322,0.0014983616905807921
82,0.16866848241789445,0.7567723744526063,0.1836422199993211,0.6063151752859153,0.34396239911066534,0.0013508678080701559,0.5923172101527308,0.78728062648201,0.010924584361314488,0.003990207422751642
83,0.16940422004302144,0.7565064952324626,0.18277590300020766,0.6062413710895007,0.34417138130985286,0.006570611121272717,0.591903173472012,0.7847954045166321,0.027518380058114203,0.01088027772724972
84,0.1696539907040093,0.7560570977336121,0.1824678117498941,0.6059722467907349,0.34433830603186794,0.0019843192319772772,0.5913792518619502,0.7822749797076688,0.16906450371700096,0.006146973799598243
85,0.17475068838977958,0.7522507122344059,0.1776535321343137,0.605235136627531,0.3444874248755218,0.05353873896511356,0.5891239403984095,0.7797800739416687,0.1881844218904519,0.0916400096107673
86,0.17459246890753663,0.7515433750691444,0.17785120823761155,0.6056725154773422,0.346345693625106,0.005118324204707912,0.5870730445619158,0.7771929582049593,0.08083012839192552,0.006568620425742403
87,0.1711507535704392,0.7529746182446204,0.1808130100445286,0.6065237072613686,0.34802603826216283,0.03483707051662722,0.5886128511192931,0.7744490266996904,0.07274732751755691,0.06610404563337693
88,0.17277233479418558,0.7514727098573677,0.17918559830093655,0.6061622224807494,0.34889142206507634,0.01456802392787067,0.5891658807655102,0.7716970536269567,0.010928761795168263,0.02175640414119067
89,0.1745622003192609,0.749997177317692,0.17758463976206107,0.6056599686304716,0.3484695591689785,0.016083554443506634,0.587540058111647,0.7688882005314462,0.028969118850777825,0.027323606090889446
90,0.17580056995231214,0.7484631800732734,0.8167568488019185,0.6053646421050269,0.34915722731614257,0.012540034117393769,0.5862116509072585,0.7660353691015812,0.009649909319021557,0.02118556288722534
91,0.17759915906936796,0.7463046258722653,0.818756153097115,0.6059469701623478,0.3510611447542117,0.017867306571483756,0.584632255821151,0.7630067446249468,0.013815538416350259,0.018923269896866584
92,0.18026495187454228,0.743444811667522,0.8212998965209476,0.6053292349011788,0.3529104896157058,0.02529300591988679,0.5821686580066814,0.7598413474819997,0.03646165571174197,0.03203865983424223
93,0.1824035262941855,0.741471682886427,0.8233679302741261,0.6056454330162309,0.35442844689102165,0.01825616673541968,0.5794263356588499,0.7566274656496503,0.026427229249264404,0.018870299094723562
94,0.18389486748472464,0.7391951541574461,0.8248436484673458,0.6058340256618617,0.35623036575882144,0.01411430813529332,0.5771521538031411,0.7532615811326999,0.02542783236181288,0.009329246566956672
95,0.18682454746387145,0.7361392960574152,0.8276215200625613,0.6061917858167628,0.35986742315314796,0.02623094348612595,0.5744799863823641,0.7498666049630026,0.062200532553422366,0.02737242319575364
96,0.18815892032932074,0.7344109241300099,0.828784951962995,0.6063700502465795,0.3611230094875454,0.011045989714310726,0.5720454728042825,0.7464469614223421,0.01471389182598701,0.00939922274786843
97,0.18944252796180058,0.7329173550077138,0.8298326129097614,0.6065620507795906,0.3617374396086416,0.010314148706760248,0.5706508624008331,0.7430167739884215,0.0241677588308805,0.011250298516207366
98,0.1902436226900851,0.7316176062953977,0.8306761830038184,0.6063415521603737,0.3624823088120205,0.006497761310354038,0.5695623220027974,0.7395419336718749,0.02441673874938992,0.008654789783812702
99,0.1905486376997108,0.7307988381552691,0.8307142642146113,0.6068252230661724,0.3622477033518062,0.004472231610155686,0.5690211841512629,0.7360371402177865,0.011808369066979862,0.0018694776114841654
