Frame,Center of Mass distance,Symmetry,Grounding,Arm fold,Leg fold,Kinetic Energy,Potential energy,Bone length coherence,Torque,Center velocity
1,0.411375221288438,0.7642854416511063,0.19828768412465472,0.46752919219159644,0.014812321451805747,0.41902608680224035,0.28449217833889456,0.5920270636151671,0.3270722441246673,0.5285090595511336
2,0.3746927911101308,0.7876112836937231,0.2268254798351275,0.45238251339786356,0.045603246720216706,0.41902608680224035,0.28449217833889456,0.5670579506088146,0.3270722441246673,0.5285090595511336
3,0.3405343140664228,0.8101935450536394,0.26103293720507886,0.43828234233424074,0.07155932855967391,0.4913389965522876,0.3226386288894612,0.5408801458914763,0.031744330860864464,0.6609236518295515
4,0.31212814975967906,0.8299571393396036,0.2947378264582551,0.4273982134995882,0.09244868151255847,0.4888201180076672,0.36671966870038303,0.5140519339353641,0.1672633479979588,0.6681761575669298
5,0.28575519816344086,0.8481719570896926,0.32951473432724404,0.41984462237111847,0.11183749490253853,0.5255915127824392,0.4139672625250839,0.48636731760498786,0.21334565817268503,0.7188143842404748
6,0.25771713563876875,0.866051798150221,0.36523233628901874,0.4145990578568466,0.13673165821959055,0.5690721127986029,0.4644907001221483,0.45830790832285473,0.1631720570795879,0.7570551991714292
7,0.2291765590347107,0.8818335839864773,0.3967343260366602,0.4065101824776664,0.16559874089598148,0.5977702533262135,0.5149659194515879,0.430569828018233,0.20467450257429773,0.792689514544818
8,0.19994640766666558,0.8946529193637882,0.41963200145358687,0.39218760243758605,0.19749693790603481,0.622953140737754,0.560633637465729,0.4037117900750929,0.3162386931029661,0.8415569585328939
9,0.16766272703527024,0.9037451075657893,0.43654780873716065,0.37328127021128665,0.23541263949297697,0.6619085669468013,0.5993334130533935,0.3778567094628278,0.14363349639349765,0.8851588440643637
10,0.13316204518335337,0.9078935577613068,0.4465030133944091,0.3558782633628478,0.2778145939289096,0.6738174669031263,0.6307498538401757,0.3529695939041,0.3248573819494718,0.8724469714578938
11,0.10147667818874603,0.9075810207192034,0.4494365181638812,0.3443758356019146,0.3203273378267457,0.6072188036757549,0.6535556023549837,0.3291487495596095,0.0654848177303766,0.757341467957864
12,0.07414330213705216,0.902814685933014,0.4449818383028512,0.3341628493690775,0.35965143057526855,0.5851965485252738,0.6674013259637176,0.30644776027994963,0.12515178653671508,0.729726787549569
13,0.05179869415216009,0.8946453612995832,0.4322787772799994,0.32416705872875495,0.39506801362220695,0.5496528896676295,0.6728791075762557,0.2847874546679858,0.10974622501330915,0.6857684180213911
14,0.03438555801846503,0.8825683628251794,0.41811139651191187,0.31578939967639486,0.42700824064492005,0.5444899871986613,0.672768305904694,0.2640152839485163,0.33061232715498323,0.6841108486944784
15,0.023627008187409045,0.8682566741051402,0.40432880609879024,0.3110124003740558,0.45311413641093046,0.5118310550852109,0.6705644391898333,0.24402017671830523,0.09301678513239281,0.6512700730824325
16,0.021692861938848215,0.8508151263440784,0.39062446305559695,0.30859444951076836,0.4728997925699058,0.5175587745874185,0.666788821581297,0.22468155725465835,0.30552454857910716,0.665700382439422
17,0.023148546653657672,0.8318060967618084,0.3792676931502234,0.30744177482553314,0.48804183054051103,0.49350631810985585,0.6620353853277975,0.20597292010156962,0.16522262876749017,0.6402201797894655
18,0.01641837623307112,0.8100386908212169,0.3652564650320629,0.30647420072045695,0.5026683199324964,0.5251299160100924,0.6546610440702681,0.18786150028062362,0.3627056869837531,0.6792540250847181
19,0.009474097053959492,0.7851248827827614,0.34077384135867717,0.3046578547240591,0.5252690082413191,0.5509833303874486,0.6396882230848479,0.17039706110224123,0.7677252941215479,0.6853257334942635
20,0.003883013226663654,0.7567982654724591,0.3030436787282727,0.2978644087727085,0.552543339129696,0.6105386957889738,0.6136409178022928,0.15376976020451094,0.6539542863197554,0.7355332921221317
21,0.0010801380175564244,0.7269335364194991,0.25369848349954066,0.27898976895344063,0.5816264448733555,0.6405931993406112,0.5786208888823561,0.13821408698865703,0.08292433508983892,0.6923416676259417
22,0.0015073496285374216,0.6957484041044297,0.20404998373710584,0.25749412676055833,0.6129328029888349,0.6515182867283844,0.541033360854273,0.12375756710430277,0.22474681265783308,0.6778139359956612
23,0.007062864728621879,0.6609616605512253,0.1563521263660185,0.24067267696917624,0.6415801644479822,0.6374931821712807,0.5050902867594176,0.1102560021644246,0.18375326332824712,0.6597997635647361
24,0.01904716550944173,0.6249487260694161,0.10965225934994857,0.2224023610159655,0.6633455117198183,0.6075993401025673,0.4716162645352437,0.09769842796825906,0.025737001277003218,0.5801892141984322
25,0.03528433066434016,0.5870827677583706,0.06892768473858209,0.20311952739369646,0.676109014981179,0.610255471927581,0.44144532814519866,0.08600977592552131,0.392161979543148,0.592930795192449
26,0.051308895999895174,0.5484177891555879,0.8543188485749801,0.18705645953278954,0.6831895831621327,0.5562419108050016,0.41714517460773926,0.07507743069291704,0.22861756277276762,0.552884038668989
27,0.06420272986445745,0.5087835095889558,0.8764031709749656,0.17665062316485744,0.6862451845891163,0.5287871382403201,0.39955840289185224,0.064814476183685,0.06951728916837507,0.5515933992588297
28,0.0726627978197374,0.46917420202693744,0.8904222291515178,0.1716039922004631,0.6868596528350396,0.5241959693095789,0.3875219509658303,0.05518363232467219,0.02663560255380731,0.5711240648008786
29,0.07767014872672717,0.4299933620350662,0.8984040842480828,0.17022183911947367,0.6847849120981461,0.5329955123866431,0.3799088469350805,0.046166348759750606,0.2705516669168878,0.5874252119274256
30,0.08596125406854514,0.3870360309363685,0.9093435120411765,0.17280062831344065,0.6835102635578956,0.584552190211808,0.3732793528365249,0.03777674735616679,0.37941634533670304,0.6232964719854646
31,0.09706422918075132,0.34659516552333675,0.9206107684149356,0.176112047380117,0.68013863113552,0.648650992781326,0.36595521918578744,0.03008879234572569,0.6908608885793467,0.6640086076893226
32,0.10942817804398561,0.3124769717933212,0.9301843299445718,0.17305828822363908,0.6764690097276649,0.7609761885790995,0.36112241893182007,0.02327991990680257,0.3719612172145137,0.7146978862272544
33,0.12284653381657756,0.2847788147742151,0.9357381979638337,0.16671702836671895,0.6673345371175564,0.8402380118783489,0.3597464374793998,0.017378003425088023,0.22443822223970875,0.7551728968108997
34,0.133397896975369,0.26340246544151735,0.9327034497791566,0.16396598672658813,0.6496726865443596,0.7867201669630439,0.3627280214037454,0.012360342203475016,0.25268092594502145,0.6738839010260241
35,0.1421735876935911,0.24769916367459158,0.9231713343450078,0.16387121056535744,0.6275866655770105,0.7113241377569403,0.37167429930162305,0.008227036058118182,0.019919756857898582,0.5353031806845515
36,0.1484488093852031,0.23649737612640975,0.9058229353402861,0.16238631022973501,0.6028610384652909,0.7236695902270295,0.3862734863803652,0.004974961372477473,0.05430583374548905,0.5352610001573177
37,0.1510344621253283,0.22939981973673657,0.8803962878987983,0.1636027933055627,0.5780735387123298,0.6986672293457857,0.406898132316735,0.002560250632633115,0.10137652024431859,0.5071277681423492
38,0.15008521678563028,0.22616641736293275,0.04296138663193599,0.16822956605818243,0.5548953456108564,0.6459032179450089,0.4327256142582303,0.0009447630535118779,0.07023559441390126,0.4746868196974011
39,0.14672746736641482,0.22689175324035057,0.07970327426132731,0.1771211905125031,0.533630607205587,0.6044781539225835,0.4623706777120793,9.304543071832475e-05,0.005207197253860251,0.4520510621161174
40,0.14149408132421382,0.23172959612237384,0.1220159367545082,0.18860141668670047,0.515528767357741,0.5973955170536374,0.49594138263237764,0.0,0.06021617386868638,0.4453395130977805
41,0.136457119189791,0.2399808875821599,0.17026208066098006,0.20130222428174233,0.4997551714599663,0.6304323568294902,0.5343613397112984,0.0007070524517010961,0.07462237413165772,0.44684065817949586
42,0.13586869525995268,0.25016980929077504,0.22211991882162732,0.21465805290698745,0.47976865056094037,0.6783674048647061,0.5782477220053123,0.002276458332023438,0.09202921768440692,0.4357711636962956
43,0.14269768077550463,0.2615607900008671,0.2734350503137438,0.22595139903039937,0.4494867259365431,0.7415961732429418,0.6272155909821343,0.004802273978887835,0.17440836945681631,0.4006683439422788
44,0.15462988506337128,0.2822358291231917,0.32229416616031425,0.23045624943829815,0.41293208845479334,0.831702177331234,0.6805194445674834,0.008399766880231061,0.01275029832909549,0.3450767767207315
45,0.1687986000171677,0.31412738140973795,0.35374056249337443,0.22332290670179114,0.3706962854724157,0.8209989037007964,0.7314858847280641,0.013053813308124742,0.1311062556435068,0.2222458953994377
46,0.1801350399288467,0.34789791826994787,0.375746629921433,0.21798940397580913,0.3298402792022062,0.7448603326212598,0.7731225135446728,0.018649149396488162,0.06492303966252115,0.23120740778713017
47,0.18898969857976217,0.38129189477584047,0.3882048153705811,0.21186364931857168,0.2907642200558865,0.7151232086035355,0.8054535286981793,0.025119270901864926,0.12608598331906992,0.22605831455990638
48,0.19522623630509767,0.4109728447048148,0.39613624641150286,0.20709330533578132,0.2563145478640549,0.6569416352507786,0.8303855924752742,0.032408423787530456,0.1345374318186393,0.24118713017630317
49,0.20024661160342466,0.43562576876501385,0.40405457160711666,0.20671687549487333,0.22533157601961615,0.5968041927212456,0.851086681210326,0.04045091636406699,0.11881248522486364,0.26641978909966013
50,0.20383254983487165,0.4551501905199658,0.4135407177567075,0.21188677219452157,0.19894146110995647,0.5421837778667283,0.8699679296057012,0.049197113132950485,0.006989569118085287,0.2824465515394827
51,0.20466915557958765,0.4700519811469358,0.4262735786134386,0.22074074871815336,0.17796135209114403,0.5360368799155597,0.888609197799429,0.05861912815319719,0.023446368234911405,0.3120411319497034
52,0.203818183556171,0.48167123727511135,0.43874848845915154,0.2326230390075162,0.15895582983396364,0.5414729436173693,0.9069939984485058,0.06869484862532947,0.012528730734406935,0.33584624821185605
53,0.20480808777450604,0.4934007285163488,0.4429822770515516,0.24746593387445243,0.13436516561775136,0.5595396718745542,0.9214799337917419,0.07940793484247287,0.06794326233593612,0.36327863513865116
54,0.20835091939713304,0.5066803638518471,0.43549381065864684,0.2623970441779784,0.10248326413658633,0.6079553313192237,0.9278978656048961,0.09083735109855784,0.1120279060969169,0.40482938656241196
55,0.21198339432027244,0.5215625108563532,0.41422927636728085,0.27420686528977434,0.07280782350862021,0.6665163732015246,0.9227587886261364,0.10312124862901959,0.03891374371998316,0.44166128929176246
56,0.22350230182208797,0.5352020422137423,0.38231184500696913,0.28484982521726454,0.05751390965387074,0.7058413427731784,0.9053646662547661,0.11625646947354626,0.15144111816995542,0.4837768071939681
57,0.2435146515739112,0.5431301611385065,0.3490217892065879,0.29804881173831,0.033023884239796485,0.6643086417643841,0.8804416166949344,0.1301639642100277,0.24258366768946435,0.48672015551769104
58,0.2694109779617377,0.5467929162093023,0.3136374588563608,0.3152702863261714,0.05334555478006125,0.5930638220204388,0.8512228567482576,0.14482770158619174,0.08674740728409523,0.4596862036879359
59,0.2989700309818626,0.5481230152557992,0.2774422917506756,0.3304775096843748,0.09115604327906549,0.5635688313049033,0.8173440960820849,0.16020110558832265,0.16306949670153728,0.44997122996046124
60,0.330982192203619,0.5459698382326553,0.24504310654531383,0.3444524347948732,0.12356657911875477,0.5119665278470084,0.7808619368781725,0.17621905109514374,0.17783643125306026,0.44959558461281984
61,0.3630890206942071,0.5390325109086851,0.21943915009224443,0.35979738420285917,0.15158465866708845,0.45242719578237034,0.7459078249687923,0.19278645507146225,0.14508760807655313,0.4475729401836345
62,0.39328295984512096,0.5274447760377796,0.20024071354351178,0.37928329879171724,0.17539299313240428,0.4028047123292961,0.714275793072179,0.20981840866120743,0.04014089955686774,0.44781684672299416
63,0.4213684132647619,0.5124096234850305,0.18481884339109042,0.401782409370098,0.19447691552032262,0.3841156998723106,0.6853372462239176,0.22722940773422148,0.022953244114110895,0.4543760130371365
64,0.4527765388458779,0.49467951077707506,0.16977984028803,0.42471249265808153,0.21421839575583165,0.3879129957275625,0.6568936034007209,0.2449557722527618,0.04336101087445523,0.46992298382742637
65,0.49384223896390445,0.4755193965027909,0.15441895336708295,0.4488028431902366,0.24231845100349114,0.39677282367310923,0.626839397178793,0.26296139487778586,0.016700730325135117,0.47274966785809186
66,0.5471018310139782,0.4572369565482743,0.1370822006239694,0.4689019349346595,0.2778777120348306,0.4337637089377446,0.5926997365845695,0.28126755064869347,0.03618481786831679,0.4771347542241709
67,0.6101774490383235,0.44316399292972997,0.11989386929837072,0.48110904911624,0.3172882332761305,0.4728347082368327,0.5528281292122701,0.2999346347097293,0.022387056894386494,0.4729138146208824
68,0.674529428945726,0.4326062127377735,0.10782565116512514,0.4855952808241582,0.35719631091797865,0.4793619409771808,0.51090448462497,0.3189066031488853,0.14477378365949814,0.45281422904583507
69,0.7281667778659742,0.4254499676932841,0.10477201961632657,0.49226117035228995,0.3942400133740378,0.4263622103828648,0.47369698694026047,0.3379949479808227,0.08834528405485541,0.40825128782755066
70,0.7664803456230674,0.4219008379724957,0.10772472703385454,0.49801677514159953,0.4256506616748862,0.3751357995063861,0.443839359623635,0.3570897783195882,0.06303616147198436,0.36568975357586253
71,0.7908514709615406,0.41998792193976153,0.11492649545864558,0.503900735349691,0.45260265048646225,0.34038601885122555,0.41936329019000945,0.3760633673024889,0.06225574780267801,0.34625980423238695
72,0.8028797584964524,0.41713314446199884,0.12534796869012463,0.5121183198049746,0.47639014317306616,0.2960368419734285,0.399790542594869,0.394806438703173,0.03991424418756122,0.31521306544865596
73,0.8073580270392132,0.4134004487001115,0.13659901760321289,0.5241812370325182,0.49629122034680623,0.2547673575376922,0.38518346908442314,0.41321433235904304,0.013589923216515467,0.2873685930084442
74,0.8082325522638865,0.409746267062318,0.14677471822517238,0.5372542525256683,0.5120778800724708,0.23545100900738572,0.37350559541937783,0.43125261521488367,0.026783455615869513,0.2766026364655005
75,0.8070638345677241,0.4061914833340009,0.15666228790231268,0.5531783094228109,0.5260734383253599,0.23765811491619332,0.36223565644398764,0.44887753423049676,0.011456554541658014,0.2725096537104247
76,0.8021217821174809,0.4025089897632656,0.16910257824713643,0.5723498043832168,0.5424552702857153,0.23525761452290547,0.3518055502791962,0.46604396836136014,0.009506400098940685,0.2696675943954642
77,0.7912834904125029,0.39811810211812104,0.18696228766683728,0.5956564728424381,0.56402751180597,0.24077146002244879,0.34399593273031154,0.482735660193387,0.022112089735215477,0.26258495564307544
78,0.7786171837906065,0.3927589946908985,0.20796642690468709,0.6193184782224823,0.5882503678953958,0.2547087885910301,0.3382162150827005,0.49895841628218285,0.016664378699566315,0.2746401448752362
79,0.7639781597185011,0.38975714796662775,0.23150523966592718,0.6415552558367776,0.6143061227778388,0.2502981089237809,0.3347093542851477,0.514734058250514,0.01904742756497106,0.2791656015122873
80,0.7475535585012324,0.3877423109096497,0.25873993121205124,0.6602544573748166,0.6423987107880575,0.2714157972667673,0.3326304886192768,0.5300940131892193,0.04429409373712742,0.2840837660855404
81,0.7382002079017264,0.3848727503010182,0.2812767397630982,0.6786492235517485,0.6675139010566987,0.195701726902453,0.3331599382326385,0.5450095023072657,0.021145047133129532,0.19888919361312
82,0.7308505393625614,0.3825616538812581,0.3019788363989862,0.6988397841424407,0.6887047203636688,0.19600261771458252,0.33553718737861066,0.5594977317088161,0.011505307385835602,0.197165908335318
83,0.725123532450419,0.38210465409945893,0.319983865620839,0.7147398354329411,0.7049720920912005,0.1896868905625335,0.3359335302282025,0.5735989907291628,0.0387772592443837,0.19375235114940953
84,0.7218244546125467,0.38389483501325594,0.3320692794745526,0.7271594936668004,0.7152550360908894,0.13655706125618186,0.3364223411330281,0.5873169596365744,0.009007730860414048,0.14819352035846087
85,0.7193740714408967,0.38701628560812673,0.34107576232866404,0.7354403780444316,0.7214814107136087,0.12433765385013912,0.337762358797886,0.600660777092121,0.009390138362633296,0.14436074488107922
86,0.7179385039976561,0.38802857692230813,0.3485903453872044,0.7493150803114268,0.7262975934473839,0.1122832729168068,0.338580649958953,0.613648806366549,0.00895834238756863,0.12542325090878292
87,0.7169458575779847,0.3896577844622995,0.3542578252731311,0.76206070127531,0.7291622626165191,0.10636257764435825,0.33916958201470976,0.6262755076159049,0.010460572037234266,0.12326492195345706
88,0.716668673712774,0.38919290380156174,0.3599854369667069,0.7784706041966903,0.7327176018755119,0.10265749381385102,0.34011795540466755,0.6385434346616963,0.00912504693977772,0.11804059759950661
89,0.716997725500959,0.3876372991267696,0.36650272145208773,0.7983147835056679,0.7374762414491303,0.10245030711691439,0.34145533230090636,0.6504527715345996,0.01036539438127038,0.11222924601885689
90,0.7177842783800089,0.38535654563946564,0.3740863230544521,0.8211512162245166,0.7433678174616187,0.11135032807082604,0.34349878366922854,0.6619866579545114,0.009468695256577965,0.1277254735597705
91,0.7188372254957462,0.38211388843714217,0.381056466188818,0.8460043039321968,0.748549627709807,0.10993078641850965,0.34569929262505156,0.6731535485894419,0.014393981137195313,0.11900396434018487
92,0.7203766825861272,0.37859691157149133,0.3893324121969781,0.867567988480244,0.7547002359816576,0.1255462419889739,0.34726869440111,0.6839537061110407,0.02480920181506912,0.1285207236159832
93,0.7216944464987944,0.376785168320986,0.3954702809402891,0.8900353156026025,0.7589371798880926,0.10682740304477746,0.34894320604245704,0.6943934814704849,0.012794354288356442,0.11930158415790083
94,0.7216263504026976,0.37727826210321375,0.40128526240191964,0.9037363053972105,0.7614563727654693,0.11146172256950505,0.3508347562216707,0.7044912689852701,0.023265088117766404,0.13422559017391697
95,0.7221479272501551,0.37739297965757596,0.4086402871152325,0.910247062175094,0.7659389346506776,0.10689900108132419,0.35227202039219957,0.7142665767144839,0.048312930666240275,0.11603543445686237
96,0.7223171285764205,0.37624747522328666,0.410747257002471,0.9208665336209472,0.7665586462503796,0.054953988963620255,0.35377504630910733,0.7237344539124917,0.015463392932782873,0.07566262803835126
97,0.7224495745284443,0.3749394770680288,0.4116673572814868,0.9332181169622562,0.7664924510714267,0.03939873167556637,0.35560938264194,0.7329079143836911,0.010009556033546004,0.0553908301226148
98,0.7219630832745337,0.37361008084468705,0.4124439166259853,0.945010764264841,0.7653491800952589,0.040887485675950005,0.3565447568931273,0.7418068445278941,0.014882642178400384,0.04811717359134324
99,0.7218746371306303,0.37162578754424225,0.4135570316453567,0.9555884846245906,0.7659740186448594,0.03036272217160343,0.357244062782617,0.7504433711544407,0.011709028786122396,0.0337668307693443
100,0.7216966346008796,0.36956948941224993,0.41411658434242726,0.9636268245737284,0.7664510329694505,0.02711241459163375,0.35863570086172586,0.7588299886815494,0.01237796768032755,0.02240693107044288
