Frame,Center of Mass distance,Symmetry,Grounding,Arm fold,Leg fold,Kinetic Energy,Potential energy,Bone length coherence,Torque,Center velocity
1,0.4787540299339962,0.2489497564348656,0.9513475360063811,0.4693780300889044,0.43972466720236625,0.026353761000729895,0.9999999830535746,0.9999987070327482,0.0573942515867749,0.0
2,0.4744850228671541,0.24953247780081234,0.9483693651518639,0.4733909663754592,0.4509934713450666,0.026353761000729895,0.9999999830535746,0.9999310640380235,0.0573942515867749,0.0
3,0.4708907276998204,0.2503045347609346,0.9473670437289042,0.4752509092780697,0.460329438204791,0.06497730684021853,0.9993937276174091,0.9967201119246547,0.06150955701743077,0.03524965332203865
4,0.4660666344308006,0.25019292477128807,0.9490892506081965,0.4751990529879448,0.4685365323141388,0.10507975776359589,0.9933375338523498,0.9887080741522923,0.022466018214002657,0.0466358479151137
5,0.4606388951210547,0.24863931105314416,0.9519020503260305,0.4666974547555763,0.47590176098945913,0.12173431558842057,0.9835638606829474,0.9768546238036883,0.08700431657169484,0.04808708604166418
6,0.45100515497319366,0.24668467664870125,0.9563431119900864,0.44854402621612477,0.48537645445450833,0.20208824429852626,0.9696477497418244,0.9609627209946602,0.08512717013881635,0.04748233708718858
7,0.43656958901043497,0.24432104937325455,0.9628015537346882,0.4366036476591535,0.49871080722290884,0.2834483926789483,0.949056834657743,0.9415495764800923,0.07796418995083032,0.053339895440969586
8,0.4191104146924392,0.24028010174132994,0.9734273005312872,0.44000490237346696,0.5142342887124091,0.3628951234926464,0.9201021594173829,0.9192697611363698,0.06420518059409279,0.06611345814072819
9,0.3963827067439061,0.23464608444036905,0.9851792217628621,0.4484981104176778,0.5325140654573022,0.41937085274773633,0.88300496623701,0.8934548737334431,0.09156560976248937,0.09212815868755689
10,0.36975170297046756,0.22821576525690215,0.9999999899342,0.44673864198365804,0.5523946729141815,0.5014865520234415,0.839132581436873,0.8642059242964041,0.008178031477389228,0.11257839247290492
11,0.3367728354978119,0.22295503400197622,0.9851338962445603,0.41657702856576095,0.5761714303348735,0.525549230311592,0.7912424607234926,0.83274565518691,0.1664241697123867,0.12492365798831032
12,0.3040270203925465,0.22196821765484684,0.970491837611948,0.3487742123532773,0.6045776099390369,0.42573211229118096,0.7474653325637644,0.8022116656475405,0.09360899058374597,0.15038399581489442
13,0.279889978857634,0.22408529235600602,0.95608591253061,0.334463767762647,0.6271607189835361,0.34628654429364625,0.7121280084596032,0.7725890053988006,0.16869282613716585,0.1944820775557105
14,0.26416316145387164,0.22641730050031403,0.9444776202141733,0.3701637461992426,0.643887478096187,0.23794393768675082,0.6846770348995808,0.7444316139685431,0.049125947767162156,0.16566538220192037
15,0.25845852008677817,0.23210328676478312,0.9323582353995715,0.4150088659457911,0.6556029575830015,0.19376404154249993,0.6635306113146037,0.718876806238115,0.10563080430597295,0.20543543246946958
16,0.2570277476744642,0.23677652278131062,0.9233638816294862,0.44235069923207787,0.6625850762114448,0.11720253451782627,0.6484766871780333,0.6958219108807955,0.08059353437500931,0.15590625908386851
17,0.25671217835548105,0.24047758804101887,0.9184499391711444,0.4649430562184406,0.6651345544450993,0.060922380503778725,0.639822681974015,0.675212824978474,0.0,0.11144879905861176
18,0.2550690803598857,0.24504989824758627,0.9158448302712155,0.48269929694210983,0.6667156218417132,0.059182450353132736,0.6357316726361416,0.6571399763977981,0.011148704165765775,0.10595352755205645
19,0.2557563342832361,0.2473472681899538,0.9138748547462852,0.4906523902221171,0.667013803891191,0.05604320244513528,0.6338307371308567,0.6412497787111718,0.06038497235767695,0.07369844352408933
20,0.2575860343201994,0.24989879970229503,0.9167945871182391,0.48768142410532606,0.6645673587503339,0.021756988604346276,0.6363771416243499,0.6272964378702812,0.005786273512614527,0.013895637841355956
21,0.26080302598812105,0.25294945567412996,0.9183292422880622,0.47934978147130014,0.6644752012600915,0.029507508277592687,0.6428127091495267,0.615241551660672,0.08478285729321157,0.07570314218302894
22,0.25836554118368915,0.2557471924494506,0.9233489776872978,0.4561390485006973,0.668406134927418,0.08192230726390588,0.6521143335236196,0.605003643612894,0.08394724792897777,0.036934072143176275
23,0.25722530973449376,0.2499688776927862,0.9226130235269087,0.3631453779966531,0.6722355808787358,0.08195229922338063,0.657511883519019,0.595934481746964,0.14195739993903989,0.005230965327651791
24,0.2564758437352701,0.23764026153110926,0.9170856147691865,0.24923556044136527,0.676341521708225,0.14237417601634075,0.6519558285592791,0.5874954650406631,0.0986845519131095,0.0536505625367661
25,0.2585715024923442,0.2230895873734067,0.9054718868973635,0.21942581290500965,0.6810109436919475,0.18964004347400815,0.6355860410300579,0.5788971626710214,0.19924842551023497,0.1466973798523198
26,0.26008884417858974,0.21431227823586768,0.8874425755079707,0.21415074335738843,0.6889274011824069,0.33093549127968064,0.6054637420106761,0.5694737979904618,0.1859902086243765,0.20709177849621352
27,0.2526938232742234,0.2112661898172075,0.8696641012229017,0.23817278512982307,0.70164882158315,0.4401405683797958,0.5664033621096649,0.5589081480846378,0.0009098138333123995,0.20148437640601713
28,0.24885096840687324,0.208997988756417,0.848970215456681,0.2739459696994382,0.7204950140418672,0.45015544555832226,0.5233690296251288,0.5474582005860351,0.010754902215899862,0.23217252202855695
29,0.25330426716013515,0.20735509410042874,0.8273136602683141,0.3005626041663331,0.7377670904068857,0.4540251132527969,0.4799782940630272,0.5352591741286457,0.0693930725196455,0.3446930926858984
30,0.26529257168602816,0.20307924928411983,0.8060769954713772,0.3135564051088677,0.7525300885795366,0.4190790448950164,0.44045074942589146,0.5225431666418341,0.11711976501819914,0.3687991981762673
31,0.2754019040889826,0.19972852326688584,0.789655756822486,0.34433179438145306,0.7643445126952872,0.3562167354899207,0.4080829263555567,0.5096800199202624,0.08417195590600159,0.3427943699947363
32,0.2823038510429053,0.19777316324324778,0.7767763711508552,0.37506648148084,0.7740905413173221,0.3145829370510855,0.3838783708209652,0.49680931086293184,0.08795743395151435,0.30249872064486866
33,0.2856585018967054,0.20093150804991466,0.7679937660787327,0.3840715045712048,0.7804355691340463,0.2711967711089893,0.3664671350016921,0.48414180630762316,0.10497837410214282,0.3178275519859599
34,0.2932269534812156,0.20504716686213767,0.2333075008246728,0.38831812574621105,0.7842502772817145,0.2123409811197784,0.3529528629572491,0.4719989551231259,0.0942408801459252,0.2786525784088818
35,0.29840643104576287,0.21177938578729633,0.23814554589674505,0.385563781225846,0.7844505639948344,0.1750004120651778,0.3427716788134485,0.4606769316593586,0.24302233478895527,0.2711893431981328
36,0.29628845997988235,0.21514805335626597,0.23748478776063978,0.35768147747336837,0.7835616708428667,0.0763583414341208,0.3406007735975137,0.45031088023388066,0.021573216851045757,0.08109510456689353
37,0.2903358036641945,0.2173435277789124,0.7594829638245669,0.30521190986801267,0.781684014295292,0.1176498515874808,0.3487793375867691,0.44100552692901296,0.14200271861990707,0.03649156706450309
38,0.2874341256144559,0.21117999520543673,0.7619985488767973,0.23483648181796665,0.7808877417241817,0.18946289017248286,0.3608881674636612,0.4328242424603747,0.08505168456583942,0.16225415608019028
39,0.27505050727498664,0.2100277254280765,0.7695419976127004,0.18306151114375158,0.7785165853972346,0.19405821452410793,0.3772322419992807,0.42545518855164854,0.07777063069009883,0.14623445594242476
40,0.2689458841179809,0.20907247162418133,0.7748721232634068,0.17292179229279372,0.7755689980142222,0.15194248750794154,0.3971293790758016,0.4185587363060921,0.060197233289966824,0.13110520239438803
41,0.2711768496565562,0.21073101296058516,0.777881642493804,0.19486369197594788,0.7712336718095694,0.12166263949409177,0.4123625950392938,0.412197883069649,0.13127301996034774,0.0763801603385324
42,0.2706365369170719,0.21687801220523845,0.7811848069582722,0.216109783377564,0.7670895751592273,0.06531896138249915,0.4235265417344713,0.40634316971313367,0.07870696209454942,0.03958207737375355
43,0.27259023825567025,0.2230886612230759,0.7826002055419473,0.2575424080967895,0.7636918598716239,0.04494098370086641,0.4304733314621928,0.40088171568993064,0.019858942877791184,0.014259882655615218
44,0.2817957657922797,0.22469330150333466,0.7801945088836324,0.3391361467345484,0.7615309275880292,0.05243593266762547,0.43050451050181343,0.39557081088074153,0.0705899076531465,0.020420691912615738
45,0.29142010769212884,0.22550362443503552,0.7751138677105637,0.40605865438498706,0.7624329496603809,0.08742631802257415,0.42354901584368315,0.39020183177164236,0.13287622376452407,0.05964354514599256
46,0.30244521284629816,0.2204127664248477,0.7669572783076306,0.444060728798846,0.7664514451292401,0.14305225618325887,0.4096168460637587,0.38453957013363044,0.06055065189740319,0.06450121595375596
47,0.313571692201846,0.21355460395817133,0.7573629719807035,0.4630761538241483,0.7731846122414083,0.16891476827754326,0.38947500697156234,0.3785709951206392,0.05039023799959736,0.07750503391224618
48,0.3241821952249953,0.20483121100215768,0.746762687129036,0.4905581402190765,0.7820260235884896,0.2018744793194999,0.36698838201989314,0.3722555866460781,0.13611309913809835,0.0954728215895597
49,0.34065303933897473,0.1968103359335997,0.7335149611718969,0.5286962048356149,0.7919029091581831,0.2875879078937397,0.3432663410274364,0.3655965764404684,0.07877631274916148,0.23714629327397727
50,0.34931990153669346,0.19391831102267523,0.7218655139361068,0.5614911012760171,0.8041515162513216,0.33295860485242723,0.3195099162058088,0.3585953599430525,0.008134482886427655,0.2620182326582991
51,0.34611742225657294,0.19417762963484547,0.7144792704794863,0.5805276386912772,0.8167348649709869,0.33823309874393576,0.2978378559721272,0.35131226964481765,0.01923533155213044,0.23039962037125772
52,0.33337396392025725,0.19726410704723665,0.28239109198432927,0.5795596583900564,0.8274399863037774,0.3318108718812132,0.2800657416304089,0.3437968139088362,0.009503540795862209,0.19530733896599642
53,0.3261368380796679,0.200428061596227,0.28663390616863976,0.5465404829667602,0.8369387580434903,0.32736360135287984,0.26599172748701166,0.33610836269376226,0.017948218982741286,0.269643547015493
54,0.3275995080864505,0.20059001096494578,0.2926234623774079,0.48785807562645594,0.8448961220897827,0.3369386111322089,0.2523757404777939,0.3282944204085616,0.09596899996410314,0.33373529472463886
55,0.32317070587909624,0.20232193793670497,0.2967949380283537,0.44556779722976014,0.8547221174429878,0.37938937121078486,0.23923057554351415,0.32041881945788026,0.08053608659448415,0.3632130543314437
56,0.3182320703788962,0.20372836425794888,0.2989799310990715,0.39269255619409466,0.8588215991368574,0.41283470357816504,0.2275317476150176,0.3126279602597536,0.13111902151646015,0.41978197588532623
57,0.30503199724850616,0.20876090972568373,0.29719266037131886,0.3542443685446034,0.8617629491910801,0.4692100629954574,0.22053304913210706,0.3050258509360539,0.18327110181061623,0.5231913208806866
58,0.28307455878846804,0.22274521105244413,0.29315622195119095,0.35022743205262846,0.8672281496434989,0.5368157040908434,0.22023701460780679,0.29766167994957915,0.1473295557592388,0.5549482068727817
59,0.25502683395475606,0.23877954476795057,0.28571098894187597,0.38877992893444,0.8730982794154152,0.49486486079823977,0.22442040919247333,0.2905321025829829,0.33746330648123485,0.5067847745752527
60,0.22859818857974074,0.2591845874259098,0.2758589320853411,0.4315031368662707,0.8735261860069643,0.405229372108804,0.23287065602035825,0.2836529425269817,0.09393038058257112,0.48321724772824304
61,0.19770349496803938,0.2799166008125338,0.2645611176906234,0.46437240669116236,0.8734590093022847,0.3829452983629721,0.24143975310198643,0.2769846324258684,0.13380427544916793,0.34534913568100756
62,0.17741060138803164,0.29640895977340675,0.25469042464419267,0.4956031181355281,0.8644557261756874,0.34267152034912096,0.24709803968130264,0.2704224669331038,0.25031104164454027,0.31982301492058146
63,0.18123076599274876,0.30643773554605064,0.254500130108388,0.517908913894176,0.8577226432741631,0.2660204007264172,0.24514831919303173,0.2639847374277053,0.12587396123058842,0.28503247810783167
64,0.19358447726176606,0.3145394618423662,0.2576658025750897,0.5304272850788965,0.8525916172662299,0.31082476411638055,0.23517919612810448,0.25766062417139035,0.15103845656644882,0.37014121791943244
65,0.20959829836693844,0.31900481456101687,0.2624522975412406,0.530525771237103,0.8516662912776101,0.3516187918763716,0.22327650917790876,0.251394359409954,0.15706820227739324,0.3865394333990857
66,0.23070534270105672,0.32172398304867866,0.2685073058524252,0.5265023899171571,0.8516530455619641,0.39723181380621364,0.21024740401249714,0.24514324832605236,0.13505427082062035,0.4273742453479703
67,0.257516239680973,0.3220043782872443,0.27509347062428335,0.5399418673523916,0.8500004244447961,0.4291501428892897,0.19499920705305115,0.23881611627941463,0.2624954326819022,0.4065515427937557
68,0.2825418265292237,0.3245426400075426,0.27904359142293145,0.5857120891586393,0.8458164863594467,0.5150651401759261,0.1801305913474719,0.2323142167746696,0.28586689672524357,0.4585020801745714
69,0.31617886850300025,0.325250476878841,0.2839058334834976,0.6575934415394221,0.8389125449529427,0.6044720906717531,0.16710281762616372,0.22558533637768324,0.26341649978165826,0.5158545109533746
70,0.37447133542467714,0.31615541125403157,0.2978187010891505,0.7371573962113847,0.8434759692229019,0.6883947971638749,0.14771616189185707,0.21866393020858332,0.09816146589779341,0.5770606258207418
71,0.45445027290368667,0.2993494529545663,0.3204466676758381,0.8024499559580819,0.8578495089465168,0.6754206354840971,0.1178426570673805,0.21170051928337077,0.14143076407785538,0.6375378066542862
72,0.5384932145260762,0.27984818952958296,0.3428518766862572,0.8376305001485865,0.8741765442072228,0.6476738489587318,0.0856421292680364,0.204823507810129,0.28653786366071726,0.6746230481961722
73,0.6028548393894081,0.26126197145053026,0.3587034591112088,0.8612272517552461,0.8894341602781591,0.5488227993970655,0.06052092862310269,0.19801593705953507,0.2113572581403129,0.586061232535319
74,0.6502193774144246,0.24231979972724393,0.3689103299863922,0.8738827997585241,0.9026513710551652,0.48064511725423625,0.044355820479184564,0.19129306105589092,0.3061027671464439,0.5121408570536726
75,0.6747123272337822,0.2260497742212556,0.3734853643139669,0.8792108953248741,0.9171113010989106,0.3870993657103171,0.03575391800335624,0.18466279671208977,0.2676169174806014,0.4249956790097396
76,0.6778926390229655,0.2116624142635198,0.3737223244704382,0.8729996097696445,0.9380241890203783,0.31104329700876016,0.03289817727714712,0.17812367807819943,0.019068882706701,0.3121460383571936
77,0.6768695493847716,0.1931342879465104,0.3725087427980409,0.8573450278241682,0.9635156990048281,0.32853989985620347,0.03363833210036195,0.1716773640907559,0.10256559750199386,0.271495364368625
78,0.6973248209668796,0.16594797336558156,0.3752531722466267,0.8477394993620279,0.9881392805608303,0.36606714687712283,0.03163981590428311,0.16524402499965155,0.33510582762566676,0.2278259542872863
79,0.7289465881320063,0.1333641924918295,0.37805987262005253,0.853734159890506,0.9999999704009185,0.4857832317342081,0.024937640782219873,0.15874388241954773,0.008114935499939873,0.41726741640455955
80,0.7834860529944017,0.10411659885679678,0.3871116504026866,0.8224982857131464,0.9899842909711618,0.44191755753375306,0.012683776354363374,0.1522206705006486,0.25217476612495315,0.5301774156954708
81,0.8198714125069868,0.08131050439928378,0.3933283226514891,0.6848881808810026,0.9834173517306609,0.3516528174502998,0.0,0.14584025718333926,0.21586341490338493,0.5421737634691018
82,0.8098304638229523,0.07376850310590577,0.3880637492977685,0.47334685239034413,0.9828745099318354,0.32613363512864485,0.0027125352709079283,0.13974082099564358,0.014390427759505378,0.3259806022168641
83,0.7548795541966723,0.08522177081405925,0.37216174395580026,0.32843468804411824,0.9767817976306445,0.3160704068561831,0.023046945230778278,0.1339664395883333,0.06325123573246956,0.20672420888985235
84,0.6893375051425712,0.10905721422621895,0.35109819032602757,0.4082512564450909,0.9633377673949494,0.2948354685408907,0.050575905034033905,0.1283710513826364,0.22592718499285472,0.24660561139659962
85,0.6262997652610953,0.1388077226093456,0.3270955041508139,0.6195493438483284,0.9479259300303259,0.39253588703905185,0.07833305254086395,0.12292057705296705,0.4109718345663017,0.4031286682728173
86,0.5359567775434275,0.18246688586545562,0.29276468662288196,0.8256701801694942,0.9302933217379176,0.5671992025289435,0.11376299960944905,0.11761599893312788,0.09697451436250323,0.5755367584206744
87,0.4422464533666588,0.23966609650727266,0.2548428957300744,0.959340868591308,0.9070272634800783,0.6146428546692071,0.1628621040334714,0.11254830237709969,0.02383315195937312,0.5350995455712462
88,0.356571361997688,0.3031166440383466,0.21901609813608175,0.9999999273481217,0.8765721418328319,0.6372857655329579,0.21867942459838413,0.1078167956889402,0.013307609590236635,0.4752874567366041
89,0.28188115589579904,0.36723336142107976,0.18845735565709418,0.9959635146339653,0.8460147581808432,0.6549666658563797,0.27087759230015535,0.1034708121307718,0.11167774284816132,0.5113440594313421
90,0.22049915174669396,0.42910766408657924,0.16138296699689136,0.9627599674718692,0.8091520894957414,0.6337129929166312,0.31953110412890845,0.09952168883180973,0.36761414914142565,0.38964785252954404
91,0.18079297016293205,0.47890640042777355,0.1421062582679515,0.924311553694819,0.7760027566203895,0.5118801571201792,0.36282381655964036,0.09590039056242732,0.33002786702540504,0.2860812630946731
92,0.14931079674972078,0.5149285810894505,0.12558161882350913,0.89855795752603,0.7513138702869754,0.4008119271889116,0.39751898952382886,0.0925319127476668,0.3121802875926007,0.220617831513249
93,0.12656506157898295,0.5408679444399749,0.11223905870649657,0.878578506100582,0.7330003508159907,0.3013578371743666,0.4265582324430412,0.08936038967471005,0.0700975557791592,0.17490462677612797
94,0.1043207986462894,0.5617207652428926,0.0982005220622584,0.8641583213565214,0.7187032321698482,0.27690762259737534,0.45168731743993934,0.08633297585014149,0.057284214489942316,0.20364806019681786
95,0.08534734376573182,0.5785594121149068,0.0858967667157638,0.8547458225705151,0.7054769928187838,0.3004592550987822,0.47348551824760565,0.08340437340012317,0.22623454809659257,0.2942239214810997
96,0.0660873543898464,0.5949588652837096,0.07426933723658455,0.8497921137391036,0.6966840929864146,0.36167964710085027,0.4917479108991337,0.08055741831066689,0.040972064998427864,0.36292229107569296
97,0.05447018553230965,0.6102242086734087,0.06912499736606285,0.8393080227770572,0.6933584844970024,0.3681298567379724,0.5044821699098107,0.07784834944336708,0.1306705343808302,0.34847919554983386
98,0.05004753643607206,0.6269273946064986,0.07022966754159574,0.8181020461022263,0.6872991233602038,0.41123600554494544,0.5094700203829312,0.07532208809741422,0.07883710994488766,0.31354210044260045
99,0.05084970425884866,0.6433418615319639,0.06955885237559363,0.7926247196314778,0.6740304432088127,0.40978899592666695,0.51419785367425,0.07291613670545949,0.19973468199656122,0.2837862004293688
100,0.05242654101790116,0.6604201542741784,0.06466016454043279,0.7723811500234725,0.6597374767546974,0.36757577905691,0.5227895389079418,0.07060567974732138,0.24790731278877973,0.32700682491711414
