Frame,Center of Mass distance,Symmetry,Grounding,Arm fold,Leg fold,Kinetic Energy,Potential energy,Bone length coherence,Torque,Center velocity
1,0.06104668238988697,0.7036241717129733,0.346541135560824,0.30290545377330913,0.3355305712470477,0.0,0.7893912290316292,0.999996763597,0.19216398184016437,0.0
2,0.05618225260053038,0.7082432968160793,0.34153014343229104,0.33610049706347533,0.3481835693752978,0.0,0.7893912290316292,0.9750068710603035,0.19216398184016437,0.0
3,0.05174295522090828,0.7117546755168254,0.3341468736189453,0.3690808328485421,0.35971771453236295,0.02801144093855939,0.7807732224227073,0.9456192103565535,0.1497776219897676,0.011348718703316036
4,0.047527001457460444,0.7159060650168647,0.32721814317335385,0.4057017896103339,0.3697564065466773,0.056659298816992755,0.769812020248137,0.9103503092147618,0.26496651131686094,0.017012498152504944
5,0.043544239927550465,0.7188602272443176,0.3182945431354023,0.44327638615622345,0.3798684478400376,0.09362130179562037,0.7571335816952425,0.8704835775294617,0.4168003911899886,0.0190914454129806
6,0.03922244736889372,0.7186276914330355,0.3058247332941791,0.4797918868059666,0.394176723039193,0.1511555938670384,0.7397453928264102,0.8269076128272073,0.47522707842479733,0.03834736777098666
7,0.03471994103623623,0.7148244814441316,0.2885174766938515,0.5132491423670444,0.4166148398863899,0.2152191899993662,0.7155908106364571,0.780492204482525,0.04463343514536576,0.05386605003263173
8,0.031095344157406942,0.709407614595176,0.2703586338617569,0.5409207935201817,0.4438523808083162,0.20767013797366618,0.6885275932852931,0.7327204139911678,0.07252514843358505,0.06452800674116463
9,0.027952046361609945,0.6998869847943726,0.24938280563710727,0.561496548484572,0.4796430082865458,0.22477200874003017,0.6602163704059081,0.6850952442510274,0.06105887048155253,0.06995179199563649
10,0.02680344538589573,0.6873799975863342,0.22653299673328098,0.5811949507407272,0.5211624501760613,0.21973394550136277,0.6296405352275153,0.6388806502892983,0.06855937870737715,0.06792544534967106
11,0.03091796595438613,0.6700348643397781,0.20145542695485827,0.5989651554565519,0.5581309491766874,0.2083402981178928,0.59813388080379,0.5951688235146775,0.0,0.08702900533257077
12,0.03974727642232852,0.6473715611763987,0.6214812984397949,0.6117829019603205,0.5887085801714939,0.20771117944354026,0.5667465939363588,0.55401068335437,0.04426912875037217,0.11965221216412208
13,0.052202173792697745,0.6211494795742415,0.6465175163298517,0.6206080853903729,0.6135789993138754,0.20214128942881018,0.5373861075341749,0.5156765373105687,0.2303699679068514,0.13911695047813247
14,0.06517807429337077,0.5929020213771172,0.6681697529439541,0.6396369471404675,0.6352196398777837,0.1794402205093536,0.5112566758270357,0.4795664951608155,0.016753278093334847,0.1343635866631908
15,0.08086385746762416,0.5598465910816034,0.6896433749307189,0.6669087503198455,0.6547279041535394,0.19473845867110673,0.48632703526328214,0.44516133215775233,0.003368406793498475,0.13452622514790727
16,0.09779530209696387,0.521789611712066,0.710465456122519,0.6934587509964849,0.6731112237334601,0.20994695994958457,0.461119252519341,0.41221830727590025,0.11798390856633044,0.15266076318545244
17,0.11799702033989821,0.4800708325922261,0.7326941152303693,0.7210231971236218,0.6906108509712133,0.23488473335351387,0.43556453215053065,0.3805095061531279,0.276279251391549,0.16475608753294116
18,0.14370443329113047,0.4361248687819435,0.7581671484968477,0.7504702721562855,0.7076288943420923,0.2893758333486034,0.4063787700596327,0.3496898849364528,0.32693353125885016,0.18811831582288097
19,0.17557905927222622,0.3979051880234453,0.7872135053455827,0.7885942565699895,0.7261008466995006,0.34890785472681907,0.3719954361140849,0.3193521903997358,0.3165547317900469,0.24140136469351903
20,0.21686308619469377,0.3627339976954929,0.820064579602479,0.8285419150862391,0.7474974623385665,0.4043683662665444,0.3327928719705258,0.288941655964615,0.3561120871450351,0.24438611912434416
21,0.2689083392000387,0.3244831695840925,0.856214574706011,0.8669797283758635,0.7705389017200006,0.4650728591039493,0.28969885633604536,0.257988970865987,0.0947823077522683,0.2664566605208929
22,0.33088939539247614,0.2842999365761004,0.8939297799028686,0.9060104230402726,0.8005460283713757,0.48588567413247824,0.24480460058165623,0.2270823831102298,0.07565310126903978,0.30225077745626683
23,0.39944879034561037,0.2467578742469332,0.9296788985819336,0.9396704109989231,0.8381395750077923,0.46985332412112174,0.20153929930216638,0.19636164164348574,0.02065509575408194,0.29920537141497133
24,0.4844848604400206,0.2132274349077636,0.9654494480704635,0.9656883278434673,0.8711366625934004,0.4940454618939651,0.161737003923804,0.16575918284853863,0.2109583782010973,0.3374489073569428
25,0.5951495969210139,0.179214118906808,0.9972379420436459,0.9718004894977447,0.9011459992640154,0.5879784769287848,0.12491693519843217,0.1357538650914979,0.5458949773488514,0.502067285746734
26,0.7405017802029278,0.1340693611467624,0.9597880811990271,0.957380919617321,0.9387363597358367,0.7438417038715851,0.08981485962573474,0.10728774758051786,0.43222421928101507,0.6806343608796951
27,0.9105716720752168,0.0773121730970378,0.9294966507818576,0.9333403959256704,0.981541078962397,0.8982290359547073,0.05621401738484864,0.08101069554263875,0.04600747178820517,0.7825502376611113
28,0.9999999981512488,0.03787627272182029,0.9209052773875388,0.914167575605564,0.9643111248383438,0.843038002067481,0.032110135694246894,0.05724692377531171,0.06327187660056256,0.7743891548170642
29,0.9694521876465729,0.0,0.9274592264263736,0.8943394588377,0.9083383221869559,0.7672968903798117,0.020189325765518948,0.036652413355609835,0.11545222046809986,0.7515024891648148
30,0.8700539331612428,0.005940239409168201,0.9467054680397411,0.8737323225784274,0.8502998996514683,0.7971449106683368,0.015810807247154574,0.019960579885838298,0.11425152683819458,0.7865545521800145
31,0.7463203042120391,0.03858043453299266,0.9773060127212637,0.8495650872641928,0.8066060349257554,0.8357840240935107,0.019504262603566445,0.00800729113135453,0.024409277261587013,0.7809071558067857
32,0.6111382810096214,0.07050680795056401,0.9781104904497514,0.8191280794873643,0.772508961858023,0.8807422412668993,0.035057998813676994,0.001304992640698071,0.052718713922543334,0.754742963319411
33,0.47470078460393333,0.10574063977666748,0.9193833707855027,0.7833941188364559,0.7428493864592828,0.934332660061972,0.06662908115071224,0.0,0.08018896969244489,0.7514152156355721
34,0.3676543816076403,0.13683130388825887,0.8568190315461609,0.7678690892030966,0.6928080092174695,0.8426278666107866,0.11001565951225377,0.0036321041218304994,0.2018989842560542,0.6878647907082851
35,0.29601100477941833,0.16166084563415917,0.0,0.7650807122597418,0.6388139358027369,0.7284321896200057,0.15874487978076707,0.011804629785732209,0.071842043344935,0.5378993406580822
36,0.2475744238774411,0.1784910514270006,0.0560206269101827,0.7625612501563661,0.6039067431969773,0.7221330229975085,0.21292058936506794,0.025603408719674297,0.15902208248061253,0.4541270967823654
37,0.21305953719420526,0.19950871887768898,0.11240643677752203,0.7570232146803622,0.5800869951498164,0.7971063151712287,0.27581703204815466,0.04545998262299923,0.019408255655578403,0.40285621579514286
38,0.18845325035188834,0.22525955139981593,0.16956743805526042,0.7468648803043049,0.552490627290024,0.8512092385046562,0.3459565929685927,0.07023577581969948,0.01206706145226776,0.4077342215550644
39,0.1658142491664759,0.2666722891409281,0.23072275680633897,0.7612453473302562,0.5121693520759936,0.9214975434835772,0.4192254430962777,0.09829307229984798,0.03483269864592904,0.4711527105385486
40,0.14543682327849825,0.31868611442584827,0.2931270032347708,0.7916681017389531,0.4602099860730418,0.9311519134975095,0.49388947978425507,0.12715954883180483,0.1660354183189474,0.5442362993989412
41,0.13246028552137376,0.38961083138471,0.33399326160265,0.84947264284311,0.4099640759803123,0.8160648564653026,0.5583307271865087,0.15580117378491648,0.11646461021125605,0.5201264949213981
42,0.11804111070115585,0.47126001294107794,0.3692471150114383,0.9036895392208897,0.3687410476705908,0.7826529644314825,0.6113944327686262,0.18397746414720556,0.21565705979553867,0.48051599164630115
43,0.09949315502514862,0.5602876955243657,0.39784981973640243,0.9481286880132872,0.3275188577302335,0.8550655115320214,0.6585930853853711,0.21179213781000264,0.25390776945297,0.5193055724944811
44,0.08440378212051557,0.6391576422640188,0.42365446593490236,0.9754378531359923,0.28422502765242674,0.7934966040090454,0.6986588220048543,0.2391040529535877,0.04907446841139754,0.4977616949120552
45,0.06837762688377455,0.7131569656460212,0.44402915136210275,0.9919227057081612,0.2466164517588633,0.7978500820339792,0.7307023590202651,0.265614793158812,0.1314004091053775,0.5624041130981344
46,0.059089301477961924,0.7786956159072693,0.45964330650643664,0.9999999281167781,0.2107663307954113,0.7682723568979013,0.7541147396094421,0.2902586786967719,0.8403874685642818,0.6184847889478428
47,0.06142290111274765,0.828156819952352,0.47642059244487145,0.9783916141285801,0.1781341446478114,0.6336250817457278,0.7757154867954512,0.3123029306869389,0.14758652935314506,0.5061239579667517
48,0.06454993820489992,0.8795249356093789,0.48507952321335646,0.9055022827704393,0.15581196362238836,0.6519310988468217,0.7898800332460238,0.33415108087915235,0.218300595734717,0.4894990387182696
49,0.0750773884272019,0.9243407217022525,0.4884510891034154,0.7713725126844418,0.13342203323071103,0.6911730152615255,0.7912675920742701,0.3564783215294351,0.005823405848776469,0.5282186810465991
50,0.09871628248440777,0.9599435223896845,0.48340452624989444,0.6194412569272425,0.09915640971372032,0.7070615901141705,0.7849574287387604,0.3795335068342438,0.16106748442550772,0.5601387592546212
51,0.13595450586057958,0.9834292227086548,0.47698988360969685,0.471897723437328,0.047922827068657706,0.7120223971615695,0.7781598792589862,0.40305479867071226,0.9999999999042894,0.5734455045776612
52,0.17222974951335715,0.993501415308591,0.47257880071827457,0.353950664244299,0.005840350213363093,0.5879189312221529,0.7817253342625051,0.4263127252656116,0.5627981147918006,0.5067724949139889
53,0.1921467254783582,0.999999996248997,0.4635563378768672,0.25106423948769974,0.0,0.5081890995637105,0.7847853694733298,0.4506488887846162,0.018899294398711696,0.4897365947006674
54,0.20780549970884213,0.9983019804850073,0.4543079616542433,0.14140014652096078,0.003927563331183232,0.49293577189882304,0.7810360116419355,0.4766414087057004,0.04193048692142868,0.466702726763675
55,0.22582196089229498,0.986922035381335,0.4484313599836265,0.037512580197768805,0.0069635534961079845,0.5082794211354466,0.7805031173520318,0.504499110905297,0.5862755133750589,0.49628223997370974
56,0.24259155463588894,0.9652443371449132,0.4523211132726423,0.08506950681652832,0.00871249497483591,0.46133532101396185,0.7914096234499006,0.5334599285236301,0.3027592373374153,0.49214429944252264
57,0.2551832925973261,0.937169153006653,0.46771147234081867,0.12479545569884076,0.017731078608833408,0.4763357042678974,0.82218372329833,0.5625948452926692,0.6852682652924592,0.5331752556118582
58,0.25604634349659283,0.9035862778016696,0.49050208262262396,0.16823517169951466,0.04508131476476043,0.5003494923397821,0.872026720903891,0.5903121422695503,0.4191684490463479,0.5885022264580168
59,0.250589217695735,0.860339926183652,0.5118587802732141,0.18847953101819848,0.07555171027562821,0.5277068178994243,0.929109018183947,0.6164387220487987,0.20507426822464703,0.6816046742768792
60,0.23452735340771944,0.8062215487240145,0.5209079334325946,0.17200718076198224,0.1079280687604061,0.5924424050320971,0.9751715744241868,0.6407067923808258,0.8782179078283705,0.8253925702306657
61,0.20574905315736428,0.7514024828399805,0.5136502106035616,0.1286185992775448,0.1449873854991167,0.6840403244700166,0.9999053594097894,0.6620328595278406,0.9842224542740071,0.9267451783417596
62,0.16286452997471146,0.7061379724426414,0.4904443814569345,0.07358088080675508,0.19361375681884468,0.7745746749083197,0.9999999865810782,0.6796254347082006,0.55397074661847,0.9717905346013656
63,0.10493538865759841,0.6758765797335584,0.4593946489729075,0.0,0.27547501656562995,0.8576538931822685,0.9739588525109402,0.6932498223304782,0.14741415224191878,0.9999999972468521
64,0.05287823866491731,0.6424784171423206,0.4175945179204251,0.09142054184221231,0.3591123884728134,0.8484017256498843,0.9275533165673895,0.7030280829067785,0.675677618310706,0.9033544316533105
65,0.01413456532941563,0.5918688895651857,0.3587327744771331,0.2082186819132127,0.453201163975702,0.8895273820411793,0.861118003910638,0.7088465949699594,0.005022272747302662,0.8498962961734454
66,0.0,0.5325289328903816,0.29789891786802597,0.3116123270242394,0.5350030210667721,0.867221593179112,0.7803406360717254,0.7110326873140408,0.6104226177660331,0.8061204682543218
67,0.009924194095650768,0.48022493393686355,0.5645398709023287,0.42055274241623697,0.5933246271233671,0.9011485254743032,0.6937469257107046,0.7102118402672155,0.7647148743037038,0.7873872411994634
68,0.04108406073464149,0.42626926094929374,0.6347576971774486,0.5401300645091365,0.6316701151484695,0.9999999991967409,0.5954092307200641,0.7069704260278351,0.039224899453714,0.857042383077639
69,0.08287565237145521,0.3716167670293796,0.6969259960398201,0.6583682908705036,0.67549586457954,0.997877537065184,0.4911486354174172,0.7016398223605118,0.4667736649280354,0.8823730647253757
70,0.13406474941628335,0.3254634752838001,0.749588270270934,0.757909873115978,0.7110139005096845,0.894517092436601,0.3993511842431767,0.6947255443631123,0.305959076747534,0.7710246759614898
71,0.20954707468694908,0.2826120745189647,0.8043887894010276,0.8117989027388423,0.7330100931493067,0.8821033985486701,0.32678856727669287,0.6871062173316342,0.22868516409367626,0.7633132595189694
72,0.281636009937574,0.24221422052672315,0.8428307273394602,0.8304709786461132,0.7394630409404604,0.8152732490523192,0.2743771756187805,0.679075957557208,0.05764514746261293,0.7125400746603996
73,0.35402998055183893,0.20365788155924705,0.8767818673852854,0.8387237393942956,0.7444754241184764,0.7920460536380115,0.23384622373033076,0.670636105281256,0.15255639672253504,0.6791104590979014
74,0.410235312575816,0.22921832581606977,0.9001376692383531,0.8561469924061847,0.7605377197098974,0.709464713318252,0.1974843308612092,0.6617059024004143,0.07516221479211366,0.5616543974596567
75,0.45302346855041303,0.2940731958735503,0.9149345753155692,0.8826205392701151,0.7780317389761647,0.7011603844788395,0.16631596513043442,0.6521469181633672,0.09065652476345891,0.5199978326486944
76,0.47719178367748893,0.352956196552224,0.9230208886022958,0.9121298508248931,0.8050712400902094,0.6360257305540051,0.13891486268426104,0.6420139577506503,0.14449829454620544,0.5926867140457258
77,0.5118773902536813,0.38830334976866737,0.9374067551907628,0.946467645276503,0.8196731375568702,0.6771100714536521,0.1164871128866106,0.6315806026953675,0.17358291527618325,0.6521552590163701
78,0.5538962702603909,0.412792537910547,0.9551532820139569,0.9466164554582346,0.8155708107442932,0.7510893324495002,0.09853357501883614,0.6209981047211249,0.17065797534068688,0.7064901345869831
79,0.582679350553133,0.4325357023319105,0.9709602346609641,0.9065126174675312,0.8069776864850395,0.8283588524448208,0.08039088073484921,0.6103764831332601,0.1400232418052132,0.7333923141737575
80,0.5776797841992735,0.451136959280233,0.976515552165977,0.8635858366007095,0.8259325130368818,0.7705290939416691,0.06382465858994052,0.5997576373678433,0.05146413924852364,0.6503681651256029
81,0.5836100137002839,0.4462785708247778,0.986739447543143,0.8252300881980009,0.8583075621056134,0.761205551903422,0.047164723641449566,0.5894994209379348,0.2420704660349176,0.8009013275075827
82,0.5921494803958806,0.4257842133240929,0.9961966943755389,0.797153740766385,0.8860063091019953,0.6970040862282026,0.027445626694846105,0.579568565273458,0.21133239713682864,0.6690125672326241
83,0.5888717839394821,0.4013139595728008,0.9999999879727621,0.7724092819524329,0.9107595166122819,0.6495582544783258,0.012786103084103448,0.570009375308012,0.17047674490452425,0.5897774361579547
84,0.5795963862805118,0.3674193679641525,0.9998794304638486,0.7650790618795564,0.9412611289230796,0.7108646261211985,0.004183687418165566,0.5608867265494077,0.030594089206391815,0.6256064440777073
85,0.5617781976835085,0.32663892131458355,0.9942144058712092,0.78234082787124,0.9820847724101875,0.7195644360373411,0.0,0.5521056555812862,0.0026930349042406307,0.645721749697145
86,0.5336129334782588,0.28063235709406287,0.9808125399317521,0.8129583849204977,0.9999999699919617,0.7283187045102083,0.002815115611021804,0.543530721373649,0.0026930349042406307,0.6881697504282271
