Frame,Center of Mass distance,Symmetry,Grounding,Arm fold,Leg fold,Kinetic Energy,Potential energy,Bone length coherence,Torque,Center velocity
1,0.0014084692799808372,0.9283801646381222,0.31319291547156725,0.933698167214304,0.27559244396977467,0.3686990386874554,0.6804510517688489,0.9294582256609318,0.25536825199337326,0.3314469511130755
2,0.0012941594983345466,0.9038487531027084,0.30507139652857346,0.9443411160557652,0.2920589897495265,0.3686990386874554,0.6804510517688489,0.9000068068947458,0.25536825199337326,0.3314469511130755
3,0.0013247567343629767,0.8763477721466219,0.2950426666556078,0.9503242905597694,0.3081530032606359,0.4006796463497578,0.6698074701663954,0.8695907412983047,0.4407256720876168,0.35296413649725455
4,0.0011440573652245632,0.8467961895461001,0.2819820919490041,0.9513678713631579,0.3246627313324889,0.44768428603322447,0.6560942072997806,0.8384388114589688,0.4111056893075119,0.3849489536587553
5,0.000730387686134347,0.8144856280291294,0.2662595661379123,0.9484724649842746,0.3423237065043816,0.4956911466941775,0.6387015103282102,0.8065412943067388,0.46952535020515707,0.42227848835593923
6,0.0001615773796457024,0.7806768422155506,0.24700403296247125,0.9371348341439654,0.36091535601670044,0.5399317506649729,0.6179221382541872,0.7747180955579658,0.422064641851044,0.4656643582904023
7,0.0,0.7457509747923654,0.22419666804706573,0.9141033474169042,0.3817159866595359,0.582026893952629,0.5932168470029219,0.7431169327455183,0.2698171230652319,0.4934918059023035
8,0.0019201015997706372,0.7072124115253088,0.1995968619573563,0.8919807618925091,0.4029178515936354,0.6164677610925346,0.5652290045678278,0.7116437308618466,0.0765056758796071,0.5147532369713229
9,0.0057487927796056265,0.6646557394571495,0.17334273986233995,0.876072960213213,0.4278350582763874,0.6370281683829355,0.535247971518661,0.6802861713393603,0.11949143926665716,0.5130673824802491
10,0.012112229384898077,0.6189974167531622,0.1445500345950281,0.8642022131336319,0.45627468443386504,0.6613007834490305,0.5030221980851906,0.6493833395395615,0.14098854888653498,0.5099510540938251
11,0.021195807986930174,0.5735294957998335,0.11444632185152756,0.8522327253002931,0.48702691109791735,0.6491295992065019,0.46877901242897496,0.6193021676968125,0.2928603536336807,0.47541913148124393
12,0.03351994692498197,0.5292006802852094,0.08439775180782937,0.84407104195158,0.5187165859806526,0.6196149125406649,0.43426850015525925,0.5901170750661688,0.3020364211843882,0.43623409748481534
13,0.049070559526284176,0.48172341234108507,0.05560976138723073,0.842551733861435,0.5498327801918047,0.5912552116393559,0.4006601643175265,0.5617421372630084,0.21331497936827568,0.39450079579838004
14,0.06824230792643508,0.43745392302421215,0.027613993588998072,0.8386980486320105,0.5788202254650218,0.5673948273819429,0.36818544089468397,0.5344708095520395,0.09674390090132391,0.3869847974554699
15,0.0911891022991704,0.39749141700888113,0.0,0.8336463041560385,0.605648046215549,0.5596196837055882,0.3365274505132224,0.5082260527387015,0.5271555781922617,0.39072803211973633
16,0.11447768801426268,0.36068714880340047,0.8693352241067456,0.8324267358300157,0.6300020297759963,0.496269172171815,0.3070969428075105,0.48295201844089786,0.38280657034534077,0.35343423481983044
17,0.13846794394049455,0.3294018179058816,0.8917552538612856,0.8331252945683219,0.6529094483815143,0.4529533795187538,0.2810507374554076,0.4586299048745841,0.46548326377233296,0.33262996739865947
18,0.1611361299391923,0.29861995338809955,0.9111649240118885,0.8357901212634387,0.6749452898011956,0.3990863718019911,0.2589044179832483,0.4349748435132283,0.2746039837409784,0.3087038631608895
19,0.18581355991701246,0.2719699963777153,0.9303250107174178,0.8377516373160824,0.6970893603219884,0.3799543376377056,0.23938352874568067,0.41207632380400744,0.2403470132429924,0.2881431049289944
20,0.21062666870383465,0.24692424922586792,0.9479376473863363,0.8425593352592665,0.7166737687629665,0.35609297349932006,0.22096746716610144,0.38984032199083657,0.09451234388966231,0.27333439141660704
21,0.23542828450995487,0.22323373943217778,0.9640033241759758,0.8488453174251431,0.7325806776990627,0.3462801617387979,0.20424642714238117,0.3681900067435447,0.09719288264841981,0.2756397432888523
22,0.2608692789307242,0.2000938137984955,0.9792786572796867,0.8566805299051055,0.7465772718462393,0.3446617794904122,0.18895821164938514,0.34707120525142093,0.05736543424955226,0.28681713246949714
23,0.28765608063894205,0.17816533021516706,0.9940962767990069,0.8651257278198845,0.7597208045326085,0.35472206229909997,0.1746832457697045,0.3264552714861547,0.13635569650837667,0.31171393688524507
24,0.3169280808537048,0.15914124232400814,0.9906978526334131,0.8749930451708862,0.7734956602346845,0.3797006830681379,0.16050737910695206,0.3063627688021186,0.31423124532385754,0.34624660965827686
25,0.35084572255649504,0.14179636867047285,0.974353346344583,0.8857197309107698,0.7872590338198272,0.4321567904426899,0.14589632859481985,0.28673533229632625,0.414830184116461,0.41381833486207403
26,0.38966371162641017,0.12749127737862145,0.9571671465541356,0.8934020037923497,0.8008106940160874,0.4924913752514506,0.13122132229370786,0.2675313488323678,0.2529173423039255,0.49552239781680024
27,0.43348073706347245,0.11313261730079485,0.9392483015979339,0.8931526865645824,0.8152852938564858,0.529695827412908,0.11721364468509234,0.24876729441518938,0.5507567153001519,0.5511453688089265
28,0.4824547494736865,0.10312917809697741,0.9204813677539792,0.8830168429715961,0.8312131520707419,0.5960804321145774,0.10366727509830448,0.23048942958524812,0.6771238941358383,0.5890827429070632
29,0.5374262557388294,0.09669070977834125,0.9007568998923781,0.8586034636000544,0.8508785099162686,0.6771215530478214,0.08934849341926364,0.21291406287310582,0.31115937983082187,0.641785132421551
30,0.5933518896409543,0.09188766005906764,0.882285554260189,0.8340236941937148,0.8696195002305317,0.7226634065861651,0.07502430710621154,0.19604117519402003,0.24724791751525976,0.7262423446808393
31,0.6522582979887174,0.08649968168451026,0.8643809472074283,0.8210909408742761,0.8911382083121693,0.7662750588862259,0.06163025934565775,0.1798282645824676,0.039615854359707,0.7777977777054663
32,0.7100023305731096,0.0813867235261274,0.8479300534368208,0.809652775523639,0.9130643226159023,0.777232351796736,0.04904884070257172,0.16433206626711608,0.24412115430610454,0.7816931965246376
33,0.763536902322386,0.07756810254771547,0.8334353075540573,0.7870237640852933,0.9337616242942299,0.7582921296708448,0.03796738211106843,0.14965761100891495,0.4491311978344898,0.7640986741905184
34,0.8105630094331823,0.07311207906020527,0.821447179583323,0.7615165530337517,0.950836257719902,0.7087431527741901,0.02878388864880317,0.1357939552235698,0.7579576264313511,0.7204627052571486
35,0.8512254904828536,0.06554236251434023,0.811629981774964,0.7371581625857145,0.9684623730797689,0.6270544689428724,0.02143047085643062,0.12276534460674336,0.5749305301830121,0.6527041337003043
36,0.8895909824387832,0.054100260972533655,0.8030064804547701,0.7111540444536809,0.9855125413569239,0.5720294279921273,0.015047844983276987,0.1105367512348456,0.5050692870305956,0.5719559525852032
37,0.9214646499713813,0.0431625508401391,0.796219435270214,0.691128615907751,0.9971482469085311,0.5250928220337389,0.009851928587833769,0.09902120863525513,0.41965789325741154,0.4889080456349563
38,0.952036011233874,0.03053816122766652,0.7903937053170053,0.6730674676349105,0.9999999711652183,0.4927470099070958,0.00597293596513768,0.0881701315379422,0.18395808284130444,0.43328150248203673
39,0.9742620730620852,0.02030453816696238,0.7863877194685105,0.6574524313134544,0.9928272114574556,0.47848644025590226,0.002935185137008103,0.07797524364241976,0.22656932695194765,0.41660700302872905
40,0.9918592272812974,0.011173813294502294,0.7835540032305429,0.6444809415042994,0.9803645405841628,0.4583578494323447,0.0009478318291199096,0.0684047413220642,0.0793698648003526,0.4130999512982717
41,0.9999999972610021,0.004893520357522932,0.7821611628208064,0.6370895087721894,0.9675146126776388,0.44215494680817535,0.0,0.05942624206523754,0.15547263350949175,0.40093773449193837
42,0.9983327205409396,0.001007661829901351,0.7821212500095208,0.6368093186370788,0.9544975890415588,0.463456792093129,9.921348490476318e-05,0.050990447706523986,0.16007636951229548,0.4184453438053509
43,0.9847598194491021,4.9752299166379557e-05,0.7836134289717902,0.64301386216195,0.9419686930063478,0.4849004994180922,0.0015193023386691146,0.04304327895198039,0.14345648811177195,0.44452270173040725
44,0.9615293265695122,0.0,0.7864536806408454,0.6573814825271166,0.9300504575346662,0.5084373628346108,0.004381361194444565,0.03556551745332106,0.17632341642753271,0.4730407244249949
45,0.9302047039082586,0.0008142334709350529,0.7907107204064083,0.6741379069510279,0.9171031986110384,0.534982745015903,0.00849127718032017,0.028573047591544918,0.1877976948694004,0.49932989580706133
46,0.8903165642572406,0.0045941750010563285,0.7965202518268498,0.6889303422677435,0.9040513540347999,0.559445165619767,0.013988593176902828,0.022120799390568484,0.3254710004671034,0.5316112331485191
47,0.8434310912866662,0.011880068494187747,0.8039407670104045,0.6960465193965703,0.890846113793192,0.605587530494426,0.020892110437314877,0.01630605275031558,0.6432080249070161,0.6012295223157476
48,0.7872283832691633,0.024048200378268426,0.8137186355281107,0.6975529908136524,0.8763614129220695,0.6948390411908937,0.029517011511341687,0.011228268624020725,0.5233919277170305,0.6878351151430524
49,0.7271134775014537,0.03767968483469305,0.8255246817205774,0.6922170999312511,0.8601710674612375,0.7717253739060611,0.04006861345930696,0.007013323930137612,0.435747416068318,0.7520156972948168
50,0.6675658040093667,0.05273931643935292,0.8394005923018134,0.6655072560346128,0.8376179192976407,0.8550155103628901,0.05272405384880466,0.003797704902102516,0.264133976452698,0.7635963058477684
51,0.6010862264178913,0.07220145819836252,0.8565582229220775,0.6342828993198661,0.8119633343409838,0.8976836964209757,0.06856882803899603,0.0015998695963036359,0.03473989524797446,0.7735993500424265
52,0.5314809354725197,0.09310262729602686,0.8770385834114448,0.6132077238923972,0.7828466076680703,0.8950592684599463,0.0882111573897825,0.00035854508133989195,0.1175385927518801,0.7460950954097002
53,0.4633052945297929,0.11217957758733593,0.9001966967440372,0.6023912931169401,0.7495074437454089,0.8761177316971626,0.11105418332384882,0.0,0.4810817219941269,0.6949244798993957
54,0.40168726825635215,0.1309372369928025,0.9243090296970816,0.5895644021230952,0.7133960856049962,0.8282561420965251,0.13579951809495544,0.0004900432789290093,0.42232072551746663,0.6223099017177278
55,0.34811299080807273,0.1474814112773972,0.9487344564808765,0.5754020171483188,0.6765939060191289,0.7762709804592957,0.1615064282073845,0.0017865691507478615,0.33229915337519883,0.5606828630373746
56,0.30084417025745686,0.1631947017977003,0.9734086030992083,0.5642096379418977,0.642116344296031,0.7294376090082749,0.18787366774711087,0.0038135246005139064,0.33463816798035856,0.5258201970700884
57,0.2599387690342455,0.17982116950014587,0.9976639219481209,0.5541275256698873,0.6103262037086279,0.677160162793793,0.21444929938296367,0.006519174044653667,0.4491309936611669,0.49080658836309565
58,0.22604595023001656,0.19638454341574135,0.9796154887297807,0.5442663744161635,0.5828320923539018,0.6114675333614619,0.24037109729009742,0.00984096308673276,0.35071770840892197,0.44791516179734137
59,0.19776348248408596,0.2132608802485845,0.9579779368030383,0.5365837306088397,0.5568222564518949,0.5570670819868818,0.2654293532625551,0.013726984883978924,0.2593917796559082,0.40102927088320134
60,0.17427221028089754,0.23020741615789933,0.9371290013411512,0.5311832760151016,0.5314658987008694,0.514773386890566,0.28983472021306,0.01812945533879967,0.28135329687368504,0.37148615953159336
61,0.15477184678156697,0.2475892437261212,0.9177285274757218,0.5279903376491651,0.5091872327435377,0.46393228055942465,0.3133460118822408,0.022987923153761733,0.3070182122463034,0.33524009861996507
62,0.1396097897283289,0.26398632542533196,0.9003268685268087,0.5232556781068572,0.48925649569837426,0.40789464731537955,0.3353669623772935,0.028269022203206835,0.10453345294308768,0.29415600770297096
63,0.1263204537490883,0.28008669387177726,0.8837780599940125,0.5172685719789412,0.4719421520496674,0.37933078498164763,0.35612850100451354,0.03396018919805586,0.02583275900090104,0.2737482947962647
64,0.1135937233060359,0.29658790534493346,0.8674269015699683,0.5108666282738407,0.4570713741517045,0.36363330462921284,0.37654549412953303,0.040037209992776164,0.06724662200533311,0.2732696004939275
65,0.10140027317648052,0.31260447548592213,0.8514770186147074,0.5062050746565442,0.4453372508212941,0.34482269165272605,0.39660272533439545,0.04647690182474533,0.018940920720387926,0.2732114121372388
66,0.08940432156838861,0.3273376446697584,0.8353432216263916,0.5031903110334589,0.4347294901385501,0.34844491937488997,0.4163579804282419,0.05330755592267153,0.03956073878724123,0.28513723807934355
67,0.07851851139902097,0.34287158370728216,0.8185717883017587,0.4943772585252312,0.42379709800821763,0.36056433089344414,0.4364469014526805,0.06058627675700343,0.2029911906734291,0.28253957441575733
68,0.0695012904219968,0.36110663884115723,0.0442710685400092,0.47913005167804046,0.41145282673509975,0.3985427481007568,0.4579557393478492,0.06840986617482261,0.25450949952397767,0.2725015210927268
69,0.061895104052388135,0.38342954179782335,0.06338196445619117,0.4595130476546716,0.3985628397322483,0.4369616615428377,0.4818732328111533,0.07687235239141327,0.4118651685615737,0.25621860650087624
70,0.055290470824974174,0.4087503225237194,0.08492447254225835,0.43974366536624326,0.3845666385158277,0.5023412194089057,0.5089745961207078,0.08609075764396461,0.27114106963340234,0.2719377092210693
71,0.051424340981652175,0.4379584033995679,0.10807074040600442,0.4159522170476978,0.36844760410328076,0.5456922001154815,0.5396300794872634,0.09619875149187362,0.220454793536319,0.24888900587264254
72,0.05390779206736953,0.468685456063158,0.1294426737406831,0.3804735006114717,0.3475300320378114,0.5645399380869939,0.5720245141369313,0.10732465041223782,0.2252532638603329,0.17913820902524488
73,0.05882857796235929,0.49820903994263915,0.15021088495822485,0.3433700740606187,0.3265523499032499,0.5906107948201801,0.6048100360219675,0.11954110581651847,0.011032422138247391,0.17655744012580024
74,0.06547771217206141,0.5256320700145799,0.17063059431301586,0.3101573924688311,0.3052028628038742,0.5877428150806887,0.638070777011921,0.1328355085306857,0.06504142030001969,0.1801275148274214
75,0.07396786723641313,0.5512200791993003,0.1898664745135434,0.2761619104828302,0.28353013836538576,0.5728653343556444,0.6710931249465014,0.147138675467217,0.5776163907054777,0.1799327458374675
76,0.084006609641674,0.5740846093963153,0.20471851591499418,0.24430077163976188,0.2618411708696017,0.4893813367547323,0.7007000744693983,0.16238051535904902,0.4740262076270527,0.15609126664118858
77,0.09568981162262503,0.5930381509461767,0.21715998106537301,0.21140675662229794,0.23771790387681493,0.42765399322933445,0.7257680570518372,0.1784492047833442,0.42525589339905506,0.1451634970207732
78,0.10794784991840624,0.6088984314285409,0.22832435295874337,0.1844155147947949,0.2131747525088183,0.3737920780670518,0.7480724122542405,0.19519274612330006,0.1768975747027048,0.1383868820544805
79,0.1198969378763444,0.6231065419318904,0.23883037936853738,0.1636229203427247,0.19008443802036953,0.34893606991894077,0.7689630527282846,0.21244206015178624,0.4229088354889567,0.15016825294208014
80,0.13228873668929012,0.6364430220191672,0.24745358892841496,0.14386966809886856,0.1666598567848808,0.2977508130958679,0.7881198973064921,0.23015593540212087,0.4533659770058834,0.13108465621514526
81,0.1434305470785643,0.6490046986279497,0.254625903610796,0.13436155252066517,0.1463813861134231,0.2350634427539546,0.8042067864870529,0.24824252465589086,0.4452859099527075,0.11441446301139219
82,0.1542603202812249,0.6634677817689166,0.25953727423798145,0.13052085747389602,0.1278638390078208,0.18559178060713216,0.8169155601094319,0.2667025732756916,0.25752578674076637,0.07888094332942164
83,0.16511347560372144,0.6789581770154653,0.26351295786001344,0.12883747227926595,0.10996050803415237,0.16126016518335617,0.827018656615242,0.2854909111149362,0.15968523074696014,0.048006798377894885
84,0.1754128109019369,0.6959434858165839,0.2663298103516922,0.13191723064143665,0.09383628151857681,0.14231877036177318,0.8358711414756043,0.3046232072149428,0.19425278189404369,0.045316478538253026
85,0.1837651571765666,0.7129844830914946,0.2689917439505614,0.1387196039954567,0.0823491462571745,0.11771182107237536,0.844079541474432,0.3240997968234114,0.009370984471076886,0.028564688082531698
86,0.19116748373274622,0.7294202992793859,0.2723629177026019,0.150607593859498,0.07264716883309179,0.11708734711133077,0.8527082612043245,0.34391494187087307,0.1386289260423111,0.02420537317581854
87,0.19758616460062878,0.7439963651094523,0.276917558826114,0.16525045961127807,0.06372561253038626,0.1325205822310981,0.863120592466793,0.3640478798849226,0.23685692808231873,0.039124565786022185
88,0.20334244340236454,0.7566840391333687,0.2814442143000754,0.18616816695804636,0.05657577086093912,0.1036569898435533,0.8742277856661032,0.38449307311801445,0.05865172995237081,0.03628520442138409
89,0.20812074578488785,0.7695088520231479,0.2860539922881833,0.20781546946855015,0.051031934153683275,0.10793629971195655,0.8854063909161655,0.4052693366596051,0.08357614060641842,0.05051400915701083
90,0.2122955968873436,0.7811653037501989,0.2912270602487797,0.2271646027823705,0.0456813315426364,0.11743024701151024,0.8974398178214835,0.42638678459376844,0.08841804756058004,0.0593664167441093
91,0.2152240408776801,0.7923049059191919,0.2959238790920834,0.241796102182034,0.041322030245700636,0.12413522240392295,0.9094888321636906,0.4479102026448853,0.15252225531748614,0.06927421180359959
92,0.2170860381545039,0.8034133015073556,0.29967640983610605,0.2451566029779856,0.03724194121669351,0.14269313548307758,0.9209742685810095,0.46991999568168846,0.04668154534302086,0.08092596949367016
93,0.21839197004825606,0.8153121314905997,0.302328225187202,0.2455643303553783,0.03303360476089628,0.13374976141917894,0.9309124587258674,0.4924138834416525,0.0945936801627523,0.06922578743310409
94,0.2197668309309149,0.8282477580705724,0.3050665941537653,0.2448161448932082,0.028627729293530083,0.14723136877258078,0.9401675242911888,0.5154308010481352,0.017302038671582767,0.08577508164371626
95,0.22044649369191294,0.8413779713010956,0.30746661451658924,0.24649457888401133,0.02433894017717223,0.15163686680924898,0.9493414546953604,0.5389660339639946,0.0028449664990857844,0.07827514252329731
96,0.2196037816145303,0.8540437709953558,0.3093915907322275,0.2463467406399059,0.021083254492497473,0.15174351004321626,0.9572536205315232,0.5630050943241707,0.047130601027171495,0.07408099677479556
97,0.21899072885524243,0.8684302013749782,0.3113018476399027,0.2405898047562796,0.016279183385899513,0.1631754329074078,0.9645611610953052,0.5875022416201663,0.09197834641385742,0.07172911029066413
98,0.2182930032327466,0.8836585423396711,0.3127218888639384,0.23293192397067078,0.011439242858940981,0.14638194708183927,0.9714471140867976,0.6123611985036506,0.09224997152379302,0.05476394963950831
99,0.21730170567923743,0.8971222238236095,0.31411742513899865,0.21359938498769118,0.006991809335448806,0.130572844198895,0.9773238145470646,0.6374905904322248,0.15768066496114172,0.061698475929284576
100,0.21598271353754944,0.9105763806669271,0.3144321003106641,0.18799183731724328,0.0024681526953312704,0.10542380019163165,0.9819758872546996,0.6627283444617323,0.1913732060056616,0.025571096573250636
