Frame,Center of Mass distance,Symmetry,Grounding,Arm fold,Leg fold,Kinetic Energy,Potential energy,Bone length coherence,Torque,Center velocity
1,0.0,0.36909679965613285,0.0,0.9891413359583644,0.30775790560263855,0.03562643426200327,0.9999992471297238,0.9997591248198461,0.050380534788706556,0.010253789371509822
2,0.009068067134602172,0.3618172050273658,0.012762378481718527,0.9881477926267658,0.310327805282759,0.03562643426200327,0.9999992471297238,0.9868144557457306,0.050380534788706556,0.010253789371509822
3,0.014797303595743539,0.35881910559155233,0.02172964107825442,0.9880831033368302,0.31846695842030076,0.020444212570910256,0.9906281211912717,0.9693723092021665,0.01919525188627368,0.012847479170535936
4,0.02080053209833537,0.35321121869433775,0.02943344240130126,0.9881813375557139,0.2697633277694141,0.03955737732893387,0.9829756150918026,0.9500909485129196,0.05628114854736341,0.04592845711414354
5,0.027197540116043493,0.349654675089426,0.03829186750985816,0.9881860554211616,0.2622647825126431,0.02661536552423975,0.977216324014622,0.9329335338625593,0.013302224348750146,0.04491360753074486
6,0.034301978189508045,0.3437127777261949,0.04581585037449037,0.9880242619085358,0.19401289669601676,0.05204639189915664,0.9730835311645332,0.9164616785872979,0.01380101035332873,0.07623813202752255
7,0.04095507048907275,0.34612013219410465,0.052554310499808285,0.9882803086353075,0.1472774421936777,0.09342594492232405,0.9722612604075529,0.8988927188778555,0.01857177997524871,0.1275125618774735
8,0.05838433217441818,0.35535652497359566,0.07692917574242497,0.9830165842722218,0.09210493885665462,0.14620523812174183,0.9717823943915753,0.8789406632939908,0.06774559383684126,0.2150723423265784
9,0.09691011636470646,0.33408079679240543,0.12184593382491948,0.9751673184287373,0.0,0.23029208611060556,0.9472630241969179,0.8593803878080433,0.05057975942908661,0.15165469643925208
10,0.15144809918291,0.3173482743957256,0.20609088158541095,0.959690133694174,0.03891599094381056,0.35129324126938,0.8955775757285095,0.8242810634572724,0.2731049681203922,0.44790182494886976
11,0.23457016797873556,0.28041001449827624,0.33242281274093033,0.9395420964007709,0.08275730828585032,0.5514078975873893,0.8118543533616608,0.7698931944077433,0.28646983535640097,0.6152228319182785
12,0.3477811219156459,0.2534075077048954,0.5017124271953224,0.9009710754767783,0.14680412971455686,0.7873677102880933,0.6753204787210975,0.7006021328599926,0.19001912262414924,0.906872495651536
13,0.4263590847973717,0.28064019280397023,0.6218690139242163,0.8365765261364705,0.24234502480001885,0.7155700478152112,0.5310515301957873,0.6330648268456214,0.012204776658763176,0.5528252434772865
14,0.5096050122581774,0.325463509778791,0.7477892554512939,0.7507834318423638,0.3305828321946894,0.7419854944585396,0.4069766685527379,0.5778708272995751,0.26011483313607764,0.5761869324474275
15,0.5588792286910085,0.3842720916367248,0.821727766306648,0.6562670674088155,0.3820050300958531,0.636363241191475,0.3119383926791806,0.5343349966845565,0.05233342880145413,0.39752244207649695
16,0.6035488702318357,0.42424011506173004,0.8871580248408435,0.5639652288290085,0.4284704108768746,0.5682224987237756,0.2683262276165061,0.49501877212031065,0.13994115495380743,0.4189639948745349
17,0.6354196953743368,0.4232565363481443,0.9296614299290158,0.4831975381650751,0.4462759671025655,0.4906467936645687,0.254374117572669,0.45754932115747926,0.1772537713325413,0.47014741503786434
18,0.6517016970564219,0.3966389378250706,0.9442361891888209,0.4239916309017626,0.4302641074476519,0.37995296485612823,0.2579413284681847,0.41910736351338335,0.18250906595333655,0.2523482126230837
19,0.6645737411177614,0.35536531724666326,0.9562745617722427,0.3846212552405074,0.40708690733504693,0.3262440766382056,0.2679309223522023,0.3859750325529527,0.005085578494587252,0.1652933409293441
20,0.6311695536228282,0.3419410433236656,0.9082583013146983,0.368120799514697,0.3534073686198979,0.3059564916887877,0.28482486505571797,0.3652786443527076,0.09705179573904782,0.26395031515703543
21,0.5943803354984787,0.35849370782467554,0.8621585270585169,0.36039969134876815,0.31001400999511614,0.23624543192416395,0.31830315011001126,0.35195198177195086,0.004479774725273684,0.13428541137792188
22,0.5520030248836073,0.4181921181311332,0.8061166848786913,0.3512254739503579,0.2401497317332945,0.2630742280432766,0.38242326696832535,0.33245446583374116,0.09208247688944957,0.23201135448365215
23,0.5348460575270169,0.48226444689594805,0.7838570525546239,0.3381572743632587,0.17888167366324426,0.25426158091454737,0.46247409694804287,0.30646905366714344,0.11296249356500225,0.2948130627124482
24,0.5567472545268842,0.5137895164107337,0.8138488785899021,0.3182002174130369,0.1775858492409991,0.30245043732102705,0.5113369821353226,0.2791726918881777,0.12522937119762703,0.35429434712679847
25,0.6009677675676961,0.5180612164612908,0.8816451694714713,0.290263981981015,0.2493101666597751,0.3610985928963031,0.49420153535707967,0.2613671577142639,0.04857660573458996,0.28972509586013634
26,0.6402444140537153,0.5005686893470089,0.9405830352444837,0.2587979838213206,0.32956108769669173,0.31236152849264326,0.4238872274573811,0.2509387148673706,0.1037683467145645,0.3170271563855571
27,0.6533130557122747,0.4760083681977367,0.9596437918349017,0.2356303485110582,0.39762829469938993,0.24786847303533457,0.3545043501390393,0.24415550035534692,0.0645170851039914,0.36422733849451244
28,0.6403442617707218,0.4373426340069972,0.9426556795807742,0.2301787989359683,0.39057543332449335,0.2918777941664898,0.2907912037967535,0.244393727670505,0.03173443794424878,0.5772957434085598
29,0.6088639663356642,0.4288151545000798,0.8985433724963915,0.23893783517938222,0.38376848523354684,0.24750969329302602,0.26868984794661,0.2498515116041174,0.01574284342093315,0.19891175488351412
30,0.5540732132855426,0.44760304544918583,0.8212450957077836,0.24430671343142485,0.33542914825909204,0.29340750786761044,0.3067662266735997,0.2553958088588625,0.16063571033916177,0.2898417054355061
31,0.5234707300422309,0.4826380243510699,0.7744402438120901,0.24213275767695297,0.25803115186351694,0.1674204840516916,0.36839573155910343,0.2570471550541901,0.023766831357128638,0.10895359439007939
32,0.5065310242588955,0.5380196649882464,0.751537050689541,0.24337313063644564,0.20877541937058638,0.19804495027287733,0.4379669071662973,0.2507108050733776,0.009446853855523593,0.19783355791833854
33,0.532086540686891,0.5688048821795404,0.7884944759554745,0.24566122050487638,0.24698571421323207,0.25554372336845216,0.48670543630548285,0.2432445026815496,0.05644289525608804,0.39782161638724856
34,0.5868410440050444,0.5640135685055606,0.8684805654906905,0.23235354755806809,0.34979794591248403,0.3146300515167525,0.4714068863312399,0.23864415973362063,0.10421825195425695,0.28322965919063675
35,0.6252445202543038,0.54790833481961,0.9247542788405689,0.20738394126990475,0.4159063502464459,0.25889532424856637,0.4117016914953315,0.23576624449655315,0.1486945272661465,0.2446800282615623
36,0.6282925969092621,0.5128471312033567,0.9279673507683004,0.1959093659920722,0.4361893608689289,0.18348985782871607,0.3563532298304771,0.23398716968817582,0.0,0.2547637472616075
37,0.6175317015573528,0.44968039787638564,0.9120108286176221,0.20205293752049933,0.4413717544333493,0.3023695855821634,0.30180033983402166,0.2341540540315588,0.09430648993295591,0.5230218379387495
38,0.6054450016392627,0.4192173659321401,0.8888189795486924,0.21676480401091572,0.42818682272965203,0.24804192655809065,0.28270490541572046,0.2327777071500207,0.04992565352587364,0.2202687679423941
39,0.5940393362377551,0.4200730026499428,0.8725738014516462,0.22685094335015316,0.4190733612576714,0.15954953962502752,0.3101807724364101,0.22826290894669435,0.004482932479241624,0.05247058784057293
40,0.5873080094627973,0.461249630156327,0.8633084187793373,0.22430902352006324,0.4016241417565181,0.20207355337757144,0.36888322299568943,0.2196185744422446,0.004809123997091932,0.30520215197296213
41,0.6025337855674537,0.5092894260023306,0.8865617846892975,0.2250050470910142,0.36983477890438127,0.2667174841533628,0.4348477832199346,0.20483923930093642,0.02140628367044278,0.38977768213073455
42,0.6451009477431482,0.5330650896877304,0.9442361891888209,0.2354139903200409,0.3990858779857287,0.33217059650660086,0.48351583634058914,0.18597795419677282,0.000971532728884412,0.5292930979868178
43,0.7043029274696764,0.5343725365686316,0.9757422759264126,0.2452697585167912,0.4583274296238391,0.3539042055062533,0.4913328172567345,0.16630984279724767,0.07303994289787437,0.34895290213932406
44,0.7545793519056079,0.5324594200520988,0.9054616510800982,0.24151492972524444,0.5397782042936456,0.3333897868249441,0.4464846621693244,0.14955011370259555,0.05448286103450343,0.26796932405852775
45,0.7802796183587263,0.5135316460329562,0.8670893384704379,0.24103757470231515,0.5826412557739648,0.2849212979011372,0.37246213842026926,0.13509609194206698,0.23669684325574356,0.3851414534489682
46,0.7835689777325511,0.46782673220512505,0.8646475930879517,0.24895164345586887,0.6091889144816024,0.19575970068495152,0.2956983552060414,0.12375287600106152,0.10114937669898579,0.27768912009438446
47,0.7860781857831307,0.4151570345425187,0.8626601259161659,0.26396319079427244,0.6357253431338847,0.20184555324000253,0.23946079813089072,0.11422428476746121,0.004017527283414061,0.18613784104710743
48,0.7727811143609739,0.3982689763116571,0.8849954712753457,0.2772192788701293,0.6297166605997198,0.1872786165213503,0.22897072034549934,0.10429559940131537,0.09061685724960132,0.1432048986102179
49,0.7429262540180219,0.4075007676695019,0.9281235089032279,0.2877703900917804,0.6015367409085794,0.26397341070626784,0.2821551466293897,0.0925984272578777,0.03083688130636338,0.2452490937005587
50,0.7156355936136614,0.41492221450262967,0.9719282317824454,0.3097805576165834,0.5482171180418045,0.277902180419943,0.36438235429655236,0.076872721561825,0.013441002916983422,0.28067543896632363
51,0.673042803410902,0.42029713337552926,0.9671062578585033,0.3538805808815127,0.5101373575921441,0.3230071916363873,0.4473045698078094,0.05740144703275083,0.007387877325160041,0.26516699602013843
52,0.6405900302890862,0.40041962515359597,0.9166198596303088,0.42610881040153237,0.49701925202173114,0.4196350582035319,0.5015777806565278,0.037464111082534675,0.07414248468697875,0.46539537057712044
53,0.6105229263784322,0.360119864716973,0.8737804779488073,0.529617765586862,0.4837402527059601,0.5183174511270843,0.5128825494688013,0.020517396151488097,0.1830099017407494,0.3309211162286335
54,0.5635734549983906,0.3208916772288891,0.8111279413904273,0.6475259912085674,0.49437607722432825,0.6611973392349056,0.5086467953672271,0.008046017952922133,0.06828209205201316,0.4746813119404267
55,0.523149805132772,0.27106465727234097,0.7605752942564867,0.7568757955611667,0.48994474239821617,0.6505020813863868,0.5026471317766046,0.0011069339886476336,0.007976215239574959,0.41324748154436486
56,0.46175416218949905,0.2299688635776917,0.6685177076849823,0.8372271209471817,0.45254481983049155,0.6207994885789646,0.5114744387451126,0.0,0.12556482085606635,0.4604327609078402
57,0.3790290792757926,0.21542190556273824,0.5467048983129295,0.8946795179566357,0.3882639709910413,0.5988683620764137,0.5578360318640094,0.0031420903017807967,0.20553308897268427,0.5576264972871338
58,0.30304539041668255,0.2085941590738603,0.4321321479238434,0.9287788022862175,0.31322115010768314,0.5047475821748375,0.6217723173274639,0.009324379095167212,0.20505982364077618,0.5361277990918711
59,0.23330761811410664,0.22501000934338983,0.3315189883842319,0.9521808593438288,0.2667942702129017,0.41966999837149227,0.6873665943391151,0.016433993901475923,0.45538610657877276,0.46567814746616204
60,0.20526857999077683,0.22916632717818733,0.2926356127875432,0.968318354350673,0.2537114167501737,0.2023598483550858,0.7322986111577008,0.025384746833163857,0.14361078503655195,0.2079015663331971
61,0.18492245390743345,0.242592312435256,0.2659940885561394,0.9796976859352491,0.25896319293994385,0.1324603601459499,0.7519208257127179,0.03589718321960648,0.11263948529938725,0.12052762568177566
62,0.17234548831499621,0.263900278537621,0.2497962311060417,0.9861210583091898,0.26748243188761,0.10094036323314474,0.7733684180999081,0.04813978269026811,0.028667686095892576,0.07276196027904601
63,0.1479773614810048,0.2859977521499779,0.21846996282685172,0.99112307437808,0.30004600474331733,0.1592323864457074,0.8043421941311937,0.06125477847677341,0.0882674509462329,0.13128538691450908
64,0.1351518965517913,0.29903977536340887,0.20089507455058345,0.9950774732989975,0.32734627060354066,0.11830437235285296,0.8357809197997687,0.07435667881902401,0.1577735503979664,0.05393961336721146
65,0.1336406226105754,0.302547544549575,0.19674032174859732,0.9973718035455457,0.3284382829026195,0.07011060005811251,0.8557141586632806,0.08613244466499093,0.10720054942361434,0.029725953876420165
66,0.13565972140989938,0.3015005683240068,0.19913947854882474,0.9985827897394134,0.33930204749845966,0.02751247344998805,0.8667133872942469,0.09645987495956912,0.024119861594000824,0.04672725622609166
67,0.1478177123967465,0.29425419297160543,0.21713552058292704,0.9994959518108917,0.3473949909207608,0.06314583410884324,0.8635152169697186,0.10548816540609593,0.09257662262615707,0.04696400563106338
68,0.15662088238777125,0.292550641314195,0.22831265739190923,0.999465305818153,0.3569560533357141,0.040879355700756334,0.8530034165490705,0.11346447035302053,0.01517732179509893,0.059271389121993416
69,0.1693305004059967,0.2896877195950151,0.24875044480849776,0.9993019020975826,0.3873957887963514,0.0615553348145322,0.8429470041664511,0.12082848091609111,0.01968717972317916,0.10271489231076181
70,0.18394044269416768,0.2833419765302571,0.2734470904503617,0.999365295622648,0.4200216134374599,0.07336825362453785,0.824751396326231,0.12772338108748507,0.02205708632729954,0.0941253388274139
71,0.19954505758582716,0.27760407079040095,0.29580609613301584,0.9997001131706301,0.4193438277916368,0.08546907820918447,0.802254961023365,0.13456913443590435,0.12093440249636044,0.12419261244676297
72,0.2063955103000373,0.27579097218636156,0.30743277908799593,0.9989460506880706,0.42516118716093104,0.037709641476195245,0.7847287206986471,0.14179054203611824,0.09121311091432723,0.06191360948639537
73,0.2063361367353082,0.2780538935277903,0.30802428717483943,0.9988104275938058,0.4263962804166298,0.004800705385768508,0.7757686035426563,0.1492542831446506,0.015308532740152645,0.006187056001157179
74,0.20381883073555682,0.2780174795653485,0.30399256805492714,0.9982902681247987,0.4243414265058868,0.022416860376136504,0.7705763151312465,0.15730131979225415,0.03647121358384872,0.030382283105656008
75,0.20095253775864186,0.2804761574862109,0.3013568080199571,0.998190491966683,0.421417289303814,0.02687544216268717,0.7677858907836336,0.16551213117404848,0.010477028951114962,0.02963071178252884
76,0.18790555093658537,0.2887641759952226,0.2816382944369627,0.9979749112650126,0.3941894652454259,0.058674680052724276,0.7750192544270339,0.17370467612499532,0.03666939718526833,0.07709642527999083
77,0.17841829320900982,0.2932244854033688,0.26626854830843816,0.9971891496927728,0.36882968435638813,0.05003450532479555,0.7904712072218701,0.1815695436085138,0.029323078191419962,0.06840357744269548
78,0.16871083885040197,0.29856502444549143,0.25116379780282005,0.9967130974939471,0.3587898356071177,0.05760583995413573,0.807931686721031,0.18897162612129814,0.06865156669133532,0.08871007545617991
79,0.16358806928596548,0.30039671568470677,0.24221546346506873,0.9960961626275175,0.34940926195690003,0.03555373193047381,0.8244328433553575,0.19584019312195758,0.048470537757424416,0.06636946948480167
80,0.1600104153141277,0.3009678941190863,0.2361631527204913,0.9955899832119416,0.34648460457719654,0.027311966208135356,0.836314235066239,0.2023704763348957,0.03869687523364867,0.04882343465699001
81,0.16033046240531992,0.2989900955099603,0.2378004471048658,0.9956096630559789,0.3575614882063266,0.03222450483019911,0.8422407848848774,0.20841060467118172,0.023093997317341474,0.04106210122939417
82,0.15009512226667826,0.3077002892909654,0.22119090002632644,0.99608204623538,0.3547965828715195,0.04327603064565642,0.8506269954980363,0.21411401341364025,0.04961009060001927,0.05252127414540068
83,0.1572242242322754,0.30379269060134034,0.23244848193512369,0.996095243632293,0.35057127526488774,0.03087037970431169,0.8522079636205533,0.21964319799595153,0.06652488502353476,0.03060465535523935
84,0.15371767990423857,0.30748200180769064,0.22779213027548853,0.9960769209242818,0.36175985231522095,0.015076938211961112,0.8503286008555649,0.22471245517518273,0.020291016966795212,0.028452428713966763
85,0.15861304453984051,0.3041075845510559,0.2360543152325123,0.9966261310797538,0.3669315676754864,0.022000327908895483,0.8488517805241306,0.2296133997908025,0.042567895315465634,0.021851214261863365
86,0.15498479320585284,0.3035024958424345,0.2306455652864165,0.9973178309525382,0.36524118232553604,0.01909145268584966,0.8452318172223492,0.23424145852300582,0.08082539200306242,0.023051261004884586
87,0.18155323885393265,0.28822458403275647,0.27085391899765054,0.9976105590378449,0.3762621312501126,0.12369401026435534,0.828502416152489,0.23866593805465952,0.25823463812609165,0.1142063622607963
88,0.18363147091327509,0.28680254681183576,0.2730401328866097,0.9977615490880177,0.3798288806089741,0.008171323397724044,0.8120714094623328,0.24270798934395402,0.022728401284745178,0.019666629644105392
89,0.18978483837202534,0.2819816261955152,0.28145847597856094,0.998178850154861,0.3882542481808236,0.0199517050446434,0.811356951695133,0.24641551408360463,0.010747576680052594,0.010965557066501465
90,0.17819961941248058,0.28905571018143333,0.26208540311828804,0.9983039792790508,0.3748131511935046,0.05397396492668513,0.8177945579141647,0.24979776320290978,0.009889579877301314,0.045843811810276115
91,0.1939748376548014,0.27887888793497445,0.28659749823704767,0.9987934682057041,0.388612013055082,0.07499150240094235,0.8160471437560419,0.25273144461491137,0.14078573599268754,0.06290370229363301
92,0.19789042480356508,0.27511384988203064,0.29089894504456904,0.9993372803954628,0.39240816153167796,0.022868255633326326,0.8044262820386462,0.25534583686209433,0.03514506349787521,0.008078581135275199
93,0.19864368780974573,0.27425974867311986,0.2906386814863651,0.9999999112304168,0.38483718379728454,0.03133032775024178,0.8036348350990224,0.2576744980313956,0.4938477279549062,0.010889134298653673
94,0.2619717725223309,0.24175868924515737,0.38601817747358,0.9978086109548054,0.44083290464628117,0.3218180067192204,0.7626038138409325,0.26043535823179975,0.12630383180167318,0.29293555191410386
95,0.3119455260705147,0.2270273498322829,0.4593699123067803,0.9907757833060292,0.4888445762220319,0.27730876252933373,0.6931921971543972,0.2626305641053243,0.11752805658706382,0.3038802912421404
96,0.38859915158387504,0.18752260721759997,0.569286311036244,0.9795793328506902,0.5543799765187886,0.4066841578608026,0.6236329941899307,0.26349321818904226,0.23394909525563728,0.47167667362788934
97,0.48240648857027457,0.1302645932590648,0.7017036773892075,0.9629575509416638,0.6391863710530372,0.5592617332710559,0.5329610298288128,0.2622987355921858,0.2481274118173293,0.49744348530738725
98,0.5945439899310505,0.08965440082990853,0.8566172793009807,0.9229283331937004,0.7229030563802012,0.7630034482197025,0.42431852236869494,0.25765366455424,0.011416296678809756,0.622391735427753
99,0.6911506265539645,0.1193865656782976,0.9926594072101173,0.8537643737458619,0.790460490199346,0.7961197401025657,0.3310594652943373,0.2492804283951699,0.36301787976349914,0.7048086841162178
100,0.7526400100531272,0.18858152540398063,0.9212525509664568,0.7701521019857184,0.8213428661555352,0.6602204245397612,0.2832846649452392,0.2385607111611077,0.46367273742726595,0.4745869696754571
