Frame,Center of Mass distance,Symmetry,Grounding,Arm fold,Leg fold,Kinetic Energy,Potential energy,Bone length coherence,Torque,Center velocity
1,0.999999993190482,0.00037145933653413404,0.9999991072430805,0.9013497241781554,0.7171115713501789,0.33622371834207976,0.28913695761147107,0.0,0.2235634836527785,0.4013720400901065
2,0.9510715942024742,0.01895966702395028,0.9878196604242429,0.9356127842150666,0.6725712653989108,0.33622371834207976,0.28913695761147107,0.07161854938813368,0.2235634836527785,0.4013720400901065
3,0.9061206907221663,0.0359286013863581,0.9711923447351912,0.9608240466718552,0.6364127085117837,0.3038249525207297,0.29738093094434137,0.14244471234829736,0.03173542229544626,0.3848769777869976
4,0.8590209033576957,0.05323167317582256,0.9495686958363317,0.9789698426228328,0.6048848604774408,0.32256203605113215,0.3025570744809969,0.2159883946658956,0.24485580241336288,0.44675840959926366
5,0.815853983386412,0.06703789499528133,0.9231751764227041,0.9882424925434939,0.5666511264531359,0.2927225853561006,0.3064014206951752,0.29491570514649995,0.21377401052129627,0.40078962157848214
6,0.7771122203138846,0.07753282902748591,0.8944816452623444,0.9912513547696207,0.5267241252829603,0.2593875518990288,0.3108889177145343,0.37419985597529787,0.10499474899759902,0.3267734477507897
7,0.7401691024330269,0.08640761039249316,0.8653316502322552,0.9910231015564783,0.49460123914650733,0.2483195503298954,0.3153689953554164,0.44758321594412864,0.17732936617362655,0.33724301383487104
8,0.7074654794418741,0.09633548624087218,0.8360224236197044,0.9916796622896232,0.472363093048619,0.22285224952004942,0.31825922119500877,0.5146482994270084,0.2525130595543862,0.3583012667583433
9,0.6786239759191307,0.1032900513926817,0.8070104292944213,0.9924725633817206,0.45400341964354596,0.1883309023005221,0.32131224201334047,0.5767170148100073,0.31074577422386845,0.24293747542458982
10,0.654321102610805,0.11079733442403338,0.7800012144285925,0.9905041628346871,0.4353535361566457,0.1496930141439107,0.3244891146774032,0.6340653753821586,0.1946364192814438,0.22509851458513533
11,0.6325074456028593,0.11481420636762235,0.7558475526083209,0.9882483829654898,0.4235665470494724,0.13150171343820208,0.3262672847051683,0.6871823335751283,0.17718792326987864,0.1818019973872451
12,0.6167228853585848,0.12206634002810127,0.7372811500928017,0.9884109688178014,0.41239530072911407,0.10119638954089476,0.3256105382649991,0.7341791793638136,0.11704398698646963,0.20140847382895335
13,0.6019858032950403,0.12831233744879897,0.7176107419388436,0.9891932276977167,0.3995165675862288,0.08672051158822197,0.32363919242084394,0.7772642732184529,0.19780441239580474,0.15107336300788893
14,0.5898428674365295,0.1329072863770104,0.7002721918481157,0.9906599639005845,0.38332538875738664,0.06092152760917396,0.32412886649554257,0.8148834536160853,0.01896770740671249,0.07967134190859845
15,0.5825880175591928,0.14001118712189203,0.6872187405655193,0.9919421268007119,0.3718350705149271,0.07509164618128703,0.32583550467681566,0.848162743665928,0.29478928566215606,0.13524730912881724
16,0.5771431197899856,0.14414126834812516,0.6781177710076974,0.9923999730750865,0.3623795172143952,0.03431890672376261,0.3278895213984285,0.8772741251751018,0.0308633939766792,0.0628097537531596
17,0.5776074310153567,0.14709298370449583,0.6752869873194066,0.9923520273695322,0.35471054138969027,0.03588638283690788,0.3302978105077726,0.9031085199827887,0.02494151027798393,0.10131254368411424
18,0.5812865498544022,0.14966833912751687,0.6773074591769254,0.9911546834878054,0.3550370785799751,0.05417179549392424,0.3321682058536208,0.925455335968655,0.0755819503152181,0.11083021222101114
19,0.5878478512737793,0.15220155754555403,0.6831353350951707,0.988408302212912,0.35766041170581725,0.053517134270931604,0.33382850023786265,0.9444862183306406,0.020253271282637663,0.11404336546034988
20,0.5983821062979098,0.1536929451468181,0.6949857033102422,0.983501160343958,0.3660967499561571,0.07181697231741205,0.3351441328220272,0.9596450465763448,0.051621335815972294,0.14816606696209048
21,0.6102011771117865,0.15045066937675464,0.7099676259804832,0.9798766782025261,0.3857709597627236,0.07022085732880905,0.33726104694621645,0.9716577554955614,0.1452705972208976,0.19200380628270228
22,0.6199595823919917,0.15071707051625988,0.7167650453119723,0.9775510606252951,0.3867772358737879,0.1002080762801285,0.34089262488171485,0.9814943274226765,0.31673024005396194,0.19809016113083106
23,0.6304256536772409,0.14802836800701732,0.7291426469889818,0.978949394885353,0.39962392773486566,0.06534630596127212,0.344327042284708,0.9879331568312872,0.020307272537682847,0.15635442813898082
24,0.6403048201669189,0.14664479012932904,0.7388416196009602,0.9808660626439217,0.41402194511720647,0.07116181144612733,0.3469238223397021,0.9918550523924711,0.06267367301587241,0.14012410588221075
25,0.6447180571664526,0.1501271729889599,0.7423977916093708,0.9850745668026556,0.42694474880455857,0.09567992092937903,0.3486475934268589,0.9950590347537263,0.11671270759840179,0.1419842736231365
26,0.6451140287344908,0.15726173048474332,0.7378579222692827,0.9928930695678034,0.4194128188354606,0.14787701820475338,0.3482620705954169,0.9984550180923705,0.2979062375071769,0.2545127228888891
27,0.6408240759265228,0.16235593968104894,0.7288171068648365,0.9999999302279765,0.3983935103244604,0.11359040933248779,0.3450365807542409,0.9999244847779691,0.33610594955780243,0.1204609756426074
28,0.6374410784125959,0.16067094230868192,0.7255900134601919,0.9935534408527729,0.3913604068300354,0.0839521470760655,0.3410710410551481,0.9983994017127757,0.08079159538286253,0.039826163111810475
29,0.6366704758437296,0.15249063747020003,0.729082492835606,0.960487237439441,0.40321607699480533,0.13100075167800732,0.3363528050441476,0.993810454647358,0.029553689927373814,0.16028556794690116
30,0.6368946310123623,0.14180101296472816,0.7315877363997416,0.9062571807496872,0.4170958356986838,0.14100252378902897,0.33002533217035723,0.9877729571549424,0.02116837248486647,0.13564160057815158
31,0.6420597736314708,0.1330286545064344,0.7398960865248462,0.8519075326207685,0.4413986017185235,0.12798341787240441,0.3224389362061841,0.9810636260649939,0.02789047643288325,0.10728991019571128
32,0.6504017155800992,0.12822754046760995,0.7486113618051471,0.8075329288313235,0.46159833678201523,0.12005759119041287,0.3127888183096638,0.9744270325391545,0.11885722760604896,0.11474481918958114
33,0.6578703187936961,0.12857658737618186,0.7573549449223355,0.7599370323540056,0.4740241925504541,0.11066717905301096,0.3000447470996701,0.9681971593776802,0.0686759311824483,0.06729967995344247
34,0.6623990928076897,0.12871372606714485,0.765514678903811,0.6975705004563304,0.4829246837268188,0.12305791882652091,0.288122764998809,0.9622973093539373,0.03968728065083522,0.09579528924802917
35,0.6618455942725407,0.1313666417846064,0.7693539292810359,0.6265518347919544,0.49187889654724054,0.14367347497342478,0.28140695856417963,0.9578452133046894,0.014502159963637165,0.07465434241742143
36,0.6596311317621846,0.1367248822755464,0.7697608544362323,0.5615574900667903,0.5087364016445449,0.13593120243986295,0.27963639501998333,0.9546754424438779,0.20629224483767075,0.12903908534953057
37,0.6572614873051688,0.14381871530646484,0.7671636104022326,0.5044434746675728,0.5153302861713658,0.10621608764002985,0.27894912554022844,0.9524584996933487,0.03152492181345645,0.11286812847785072
38,0.6615605398213718,0.14618623161386668,0.7717600954160756,0.445384378822683,0.5082643240453028,0.12230275558982687,0.2753199850093471,0.951209430714914,0.04822161984930891,0.08293513892111169
39,0.6681056362672163,0.14670691924677845,0.7816784537639014,0.39937581861435495,0.5109250911879614,0.1340684174613317,0.2683508354717468,0.951233531716259,0.2017867303520162,0.12165250793564315
40,0.6787299707624445,0.13936889653794277,0.798171307227758,0.37103746929064707,0.5185772260698254,0.14931533913909684,0.259845023730914,0.9527900883501619,0.07654152615273392,0.08827554158111012
41,0.6829879855098785,0.12814398788234388,0.8084293596181726,0.3664809492734883,0.5269885282055435,0.1309637213989089,0.25159704962042445,0.9560250039826357,0.23962122624058377,0.18637876617991297
42,0.6816505762471456,0.11457095954074534,0.8088221308549155,0.3832043733542489,0.5257231512695179,0.11784852740726498,0.24721088144147121,0.9593308136877698,0.1513079792020947,0.2178540733548378
43,0.6789808454801539,0.10477133763761898,0.8044733394137973,0.4109411114803212,0.5231534707487411,0.10928979948672413,0.2475118483840871,0.9608594417863969,0.15864370738489797,0.17487978623414843
44,0.6801437830919518,0.09840557695090112,0.8039956446663924,0.44319349348866055,0.5237455004707395,0.08706170754085524,0.24773150720037052,0.9613442840792561,0.12777442938759775,0.12451142071662204
45,0.6829658251121176,0.09437332308587636,0.8045547244448287,0.46827081716793245,0.5230899535178821,0.06533390185291045,0.24726417784606966,0.9608678105734368,0.1910610462428635,0.10649934222166807
46,0.6856809381609942,0.09264237569969944,0.8065716578227364,0.4837537199305692,0.5197521990635764,0.03201997811725275,0.24720426814941732,0.959907398293522,0.10388378411940341,0.08451128301869472
47,0.6887435714271781,0.09085342684818905,0.80975628947205,0.48846009176406174,0.5152579461297007,0.014919926868560147,0.2478973138797322,0.9590229596377329,0.012504530243298456,0.09213907472494348
48,0.6896695828774305,0.08965922835910715,0.812293379352674,0.4955155480258566,0.5163824875381665,0.01599387455508257,0.24770495075010268,0.957524684421149,0.0632982508783539,0.07429147518155495
49,0.6872118357239424,0.087959329721127,0.8090556705092066,0.5126096233751404,0.5090295490599759,0.019279704296620875,0.24797646520775252,0.9552094325020154,0.1207362495364789,0.038900390649784476
50,0.6805108237800764,0.08965111920835897,0.7988365413945021,0.5495418392230379,0.49232469418753466,0.059709743222506224,0.25138873706077186,0.9523060599688036,0.023890668440678216,0.05967884077461172
51,0.6745805665463878,0.0913232477603353,0.7905458836674423,0.6008507210845909,0.48799894398797183,0.08421213790531702,0.25612504533539293,0.9490648613162475,0.04167890589044568,0.03767146877096385
52,0.674422273954481,0.09472202533836338,0.7861935537467131,0.6527299629267136,0.4775923541099681,0.08774684253995577,0.2614044033260723,0.9464593547062539,0.25842609478022566,0.1254009046482637
53,0.6759479766591864,0.10027712073397498,0.7859210908167118,0.6840759692422892,0.4766215399950145,0.06583512676158046,0.26641949646702334,0.9444068364312502,0.050092121809856484,0.10726196106341757
54,0.6746849856427253,0.10231330607973198,0.7899054188579746,0.6741914485520308,0.4806248924515088,0.07253330285335985,0.27063782766326017,0.9433732880015162,0.014873481743343013,0.09537405911609242
55,0.6710584394895586,0.09976023884000737,0.7921028146959997,0.6418797438231062,0.4749397788463069,0.09274276076833082,0.2748749530002454,0.9428171842814742,0.08153671334038452,0.1488578631890573
56,0.675102868465024,0.08965832800848865,0.7967913001797168,0.6097849515239127,0.4668976696327628,0.11472210339063564,0.27950547616819243,0.9416610024498322,0.08177428614926935,0.2183412783078357
57,0.6816866177545057,0.07645102571890124,0.8015647091740861,0.5873486162497015,0.4902411149912587,0.10929843202183848,0.2856201995455208,0.9393658470116022,0.10041611313864525,0.1378236360380754
58,0.6872036335677509,0.06338206550685213,0.8032702563462725,0.5655175842549565,0.5283356822879843,0.09942263300907106,0.29110262303566015,0.9355723539602265,0.022960273385380082,0.09050055755834646
59,0.6887311408664532,0.05480697743575682,0.8002519332386425,0.5215285576548809,0.5418341644296195,0.1236717669502249,0.29263909992478293,0.931551570575048,0.17796103958473158,0.16483109215623093
60,0.6922726844236496,0.051698906359398715,0.8056021144094928,0.45655671256168284,0.5471673125547656,0.1886028475388834,0.2915006005615715,0.9278745302491226,0.022106223381735325,0.2584438057497331
61,0.6923959252186593,0.057950016854830116,0.8087301303850514,0.39205938426010933,0.5544811011379702,0.18269302865905188,0.29127184205260137,0.924971364684831,0.0267789143661944,0.2229425070675086
62,0.6946767949264607,0.06961463770543581,0.8128949208864314,0.34107227869584433,0.5602492492348742,0.16847437655906114,0.2920493898197415,0.9222017068888659,0.07636878450344911,0.22150970341054743
63,0.6962759112757765,0.07975011956231716,0.8130966142242242,0.318670296571337,0.5605908948988384,0.14865680208752818,0.2929360383386203,0.9195167738476977,0.21978267670435245,0.2024678996291718
64,0.6968840548016264,0.08441653568642385,0.8120103009838499,0.3181660383927539,0.5671580114553381,0.09529523601596784,0.29647036764194823,0.917054165983891,0.01268194386168743,0.17799038461944355
65,0.6957096724332518,0.09292578192505936,0.8079693572688224,0.34192006204700337,0.5642151033580352,0.10906154657673099,0.30090144109205585,0.9144808260118847,0.04692837288813865,0.20581778345217658
66,0.6923939107682289,0.10337546699941447,0.8014408623877236,0.38052142581958487,0.5559944469853422,0.11514018910549371,0.30386338957912584,0.9119218162365705,0.4385492158395832,0.19634949215100794
67,0.6920422468427299,0.10862259977748405,0.7994663907651469,0.42463398487910126,0.5509400750523726,0.07852672804033314,0.30412721065196185,0.9088767144073825,0.07872604430704788,0.09986366027780028
68,0.6909197180348841,0.1101677482380658,0.7957085254189533,0.46476238323547076,0.5469501480734091,0.07095702672844344,0.3046269574889301,0.9054352216791719,0.186609361056818,0.07945509602501957
69,0.6893297163033151,0.11069343398776539,0.7928423569345633,0.4945343369030951,0.5489492352415639,0.03353781175366087,0.3069382670761222,0.9017918082612596,0.15770175221351632,0.015292201896650964
70,0.6879152180983853,0.11185033990624466,0.789647109846417,0.5063393610199476,0.5481224575692489,0.0009435946621158703,0.30875225750873997,0.8979664715199738,0.01474650245574456,0.0
71,0.6854285533010995,0.11326759834131772,0.7856627818051543,0.49807499230352165,0.542565022510972,0.013407229461954186,0.3103294719538799,0.8941438810188411,0.1567899088506008,0.02888605937913655
72,0.680094372889925,0.11585859589475918,0.7818164544687075,0.46586891383904483,0.5441020502993186,0.08439215855064455,0.3090940213050792,0.8900331314930651,0.5553206167581197,0.22593901272125602
73,0.6734138599434639,0.12913627288691099,0.7687594647065003,0.4393164278130079,0.5145277860168226,0.1577362286664119,0.31240849562539563,0.8871967220742771,0.23017594729434981,0.21185248201443904
74,0.6688445147136054,0.14716704799106017,0.764888368012777,0.4404923844829073,0.4988133637832468,0.13743415181497465,0.31989848411128247,0.8854870934267021,0.08561150638418652,0.22253931221667972
75,0.6623301924150915,0.16118092117163763,0.762213277427347,0.42836593016827595,0.4986216766231774,0.1281504204429423,0.3257878848614295,0.8836368895946453,0.20312727738852518,0.13145989474192907
76,0.6513065189065417,0.16897564875228555,0.7501329080376052,0.41199572574956317,0.4928070081187194,0.08667879292102659,0.3304359564945183,0.8813761040575789,0.013937705582458248,0.1376989761590923
77,0.6439367460781783,0.16822148093128939,0.739853624769525,0.4119656225741654,0.4871878059849179,0.10563435768441183,0.32875343779467514,0.8784945709665266,0.12178065965321064,0.2235090945901696
78,0.6422710850783147,0.1608567267091523,0.737415612317987,0.4184831469873333,0.4827875585464665,0.14195395094604016,0.3222562615708239,0.8753048111228418,0.08677646384194626,0.2832970602053602
79,0.6463454407955538,0.15144115712769413,0.7463679657321899,0.43104243063288755,0.4993562583873459,0.13224224679633068,0.31647970762816385,0.8718661503142021,0.17292875786768377,0.19677576498581786
80,0.6505630098078822,0.14324775580542842,0.7550549331756035,0.4511155676059849,0.5122873004945993,0.11640150956874515,0.3137526310713323,0.8680143556797758,0.2525668454253449,0.1926546201715386
81,0.6533089750650393,0.13747684645240515,0.7593789552594552,0.4715946311032909,0.5218651001212551,0.08208506745173907,0.31356022160346314,0.8637172417501374,0.30429003341175187,0.1474171885053654
82,0.6544062616333991,0.13376626003452,0.7592409545546491,0.496866920395559,0.5265123712779509,0.053400463125820995,0.3152562591319287,0.8589600072831591,0.08084645112343547,0.10395515373763899
83,0.6554686808081767,0.1336070783722371,0.7600335739873666,0.5272290626704239,0.5369636280107417,0.0406157033388331,0.3174400188321103,0.8538744674415536,0.020065266723672773,0.04106361979162432
84,0.6585392064652059,0.13322576100912037,0.7640426713858959,0.5632807600075574,0.5489076248311686,0.05448007350680275,0.3188434820252622,0.8486656277722938,0.016932363588270414,0.07610062151753372
85,0.6615064223508119,0.13353401953751154,0.766664684777172,0.6063306342201554,0.5514943791465968,0.07002820921222193,0.3201290035017461,0.8432319087730635,0.04761293776513326,0.05731754385799806
86,0.6658089799659102,0.13251778177117896,0.7711797847599837,0.6495516285094981,0.5498880893333069,0.0746316853422368,0.3207384150689935,0.8376491399793793,0.045134983412202775,0.030395065488160893
87,0.6658331353461469,0.13449130411519672,0.7708613215950504,0.6869304555992611,0.5526362118028035,0.05977942583907805,0.32181010227169343,0.8321096884638949,0.11853180098541785,0.08054863058382256
88,0.6720994660071264,0.13256697768327486,0.7772872005674522,0.7175448658717952,0.5546630576007978,0.0543816927340296,0.3230838823914291,0.8266881728582711,0.1545883793910164,0.10359931927859826
89,0.6730762959314278,0.13331493205098158,0.7791873641182094,0.7308616127342356,0.5563668750576537,0.022187738478100353,0.3225210571770745,0.8214686068122186,0.04580024638296902,0.05842810870104111
90,0.6741471419499582,0.1328805780651416,0.7806876794730021,0.7313367706600747,0.5561216663797638,0.018203753545550764,0.3211448053096357,0.8165062311710829,0.10349677338648962,0.04857208751952108
91,0.6742032569336975,0.13198722789693748,0.7796685973452154,0.7262829834322334,0.5526917466283374,0.009605535404820707,0.3203348580642131,0.8116170116178758,0.05602809270251913,0.059348672249109544
92,0.6741036870975211,0.12797748712347018,0.7766502742375855,0.717198818029185,0.5414940247215282,0.015518083005809622,0.3202392414832625,0.8068101853769192,0.030417249835749078,0.04543813945826143
93,0.6735664841240736,0.1202554888874181,0.7741308767550161,0.6998263123328095,0.5365307939826806,0.054950860527835384,0.32074357858214675,0.8018421375639094,0.2718321432589019,0.07575425355377818
94,0.6746857955078318,0.10664982573311294,0.7757196541000619,0.6636126789697824,0.5416998152322077,0.12074912395924049,0.3223868922471218,0.7966724462760818,0.2629527606291591,0.08573178990171562
95,0.6801957675156889,0.08897045831544335,0.7843146210736114,0.6039018667646112,0.5675227177043283,0.17585593550007048,0.3248099618913463,0.7913537812166722,0.13675882031089232,0.10816156765856863
96,0.692003819878962,0.06990420127822042,0.7986737713324294,0.5434657638110825,0.5916311719379729,0.19720858238509562,0.3306046695100577,0.7863809920903642,0.15648359628930308,0.06690724041884419
97,0.7062480173548367,0.057820072556206255,0.8126295349156619,0.4984327771237496,0.6131503233456472,0.1693560772072903,0.34268851078933815,0.7813667814318946,0.289666659107917,0.20187578885327792
98,0.7198274959091471,0.051553956697742466,0.8241685169250219,0.4958841219520936,0.6341656121669347,0.1119747796187878,0.35771775173948056,0.7760514382418693,0.07050721915029605,0.1450016877165383
99,0.729540341644314,0.05217920641039655,0.8324945594481811,0.5296262070611012,0.6629147092762127,0.12255030647818929,0.373088459171349,0.7699278318103819,0.05259760379535163,0.1413872134987368
100,0.7271639119565572,0.05877073512013212,0.8262632968543502,0.5846193948949681,0.675252197005419,0.13162784208105635,0.3870056912077258,0.7631521651917835,0.01614876877175932,0.0755129384435931
