Frame,Center of Mass distance,Symmetry,Grounding,Arm fold,Leg fold,Kinetic Energy,Potential energy,Bone length coherence,Torque,Center velocity
1,0.761278349760186,0.2353688541818415,0.8140393014966885,0.5888134683247489,0.37938629391872497,0.505999457790182,0.40473925007307,0.7372552307048692,0.07167497744761561,0.4901717453944613
2,0.8004803578291206,0.20214297640704548,0.8508463625997011,0.5815413678476732,0.3879616238440761,0.505999457790182,0.40473925007307,0.7173282330986123,0.07167497744761561,0.4901717453944613
3,0.8302370362591236,0.1758233189868487,0.878139700502459,0.5691186427264415,0.39735460976243026,0.5878160422064914,0.4237024267664348,0.6610039643360308,0.018792545511062096,0.5019170276507892
4,0.8589687546085598,0.13417573591712717,0.9057906971721666,0.5393170947273124,0.43757050282138543,0.6736052064058636,0.45833470365588524,0.6053788536095991,0.16814114580555675,0.6549623608858066
5,0.8821457060771728,0.10569476614529665,0.9262726225581381,0.5181785227839726,0.46650797732934923,0.5692475766552637,0.513118988987255,0.5407400991731985,0.1749342600403511,0.5051092053596025
6,0.8984092394346237,0.09206227011622255,0.9373441483876487,0.5000116436803823,0.48915764995832195,0.47129764863074236,0.566425901306529,0.4664529475422765,0.16882878722909295,0.4201930948206731
7,0.9139942214380904,0.07393652046220772,0.9501244883258211,0.48058894497464033,0.5228179394604096,0.3918735038858815,0.6115609570210415,0.39553029113839305,0.12548629003739775,0.4094836652785586
8,0.9352948047819888,0.055567175216235415,0.9715601704235998,0.4550493524637213,0.5716064606364932,0.3100816558254927,0.6405982780961147,0.3272659123166273,0.21342637162310565,0.23745254077114955
9,0.9521460606844974,0.04319688000301521,0.9867725899768586,0.4349166866276381,0.6020328893278651,0.1668691646826881,0.6590025589780788,0.26814624004995996,0.10106078061134777,0.17565289807582182
10,0.9683367606918258,0.03472771710399294,0.9999980163805263,0.43357138503142506,0.6187206389278131,0.11454623275445372,0.6770043145390658,0.21622399119017924,0.1361647274814952,0.13341706980507292
11,0.9789685854341499,0.03545686995713781,0.9908340039746082,0.4427935823593941,0.6238488202367378,0.05063454811862108,0.687568109242933,0.17148610223330824,0.0,0.05969837804095764
12,0.9875229812503166,0.03900340160359496,0.9859539487992314,0.46374989928455745,0.6245196647162832,0.08704129417880148,0.6926772423979857,0.13353537239222482,0.00299307574399145,0.12641172933522118
13,0.9924791369959787,0.0430479074822247,0.9825204246367255,0.4866113811473026,0.6202964181210703,0.14146318843434447,0.6951752125562543,0.10511475460743146,0.007944424557754426,0.1825397823591683
14,0.9977262554339116,0.04395398733352142,0.9782523633514103,0.5044442376597181,0.6242828954017363,0.1372027721808953,0.695637672546462,0.08125397071464685,0.02016741072876433,0.11002027849787764
15,0.9999999786334672,0.05407048123670998,0.9785464383375435,0.5142722099826122,0.6410822627093123,0.158301988159142,0.6995766523631379,0.05987431803530329,0.09360181904590441,0.16217247521009132
16,0.9980140445606033,0.057492686972723694,0.9866533703878827,0.5136412197594948,0.6310257896132343,0.08823201280251623,0.707483266282899,0.041955408590809574,0.004181448866895183,0.09789405507313623
17,0.9885494526344564,0.06500700187112,0.9973433935326703,0.5111442910282334,0.6257344364631674,0.1399092280442011,0.7174682368933918,0.026273972662965994,0.014412076308187347,0.13112826698613547
18,0.9759838527506801,0.07061253255709365,0.9915572694810767,0.4919501737765601,0.6110259554453382,0.1470613502247569,0.7252237386251688,0.014024392485778726,0.001135471486177877,0.14567753513651335
19,0.9637074895977471,0.07910682605625351,0.9806447031035194,0.4763336561258959,0.6043324688646934,0.16429375077205174,0.7390357681214254,0.0037435791658847694,0.06758068733845062,0.13883472490052387
20,0.9500463172318971,0.08816646549913137,0.9667119071385872,0.45939181984740113,0.6254416974652591,0.25939495655135064,0.7583160371179818,0.0,0.0260062822123537,0.23413023046656015
21,0.9369295693643891,0.10874367443233375,0.9476288249299183,0.454230513262782,0.6365035568046182,0.3053594098209949,0.7694295313274606,0.003710126191193375,0.05080103789291316,0.3843125439937099
22,0.912076485394715,0.14281964282492762,0.9171960378508097,0.4619868225626945,0.6547384525953596,0.37494145552843394,0.760569301035498,0.014676360166591533,0.0021572488760779537,0.37185083308220157
23,0.8835256833245442,0.18017337550510215,0.8918658491798256,0.4798149992258235,0.6534110972957626,0.44212641297027183,0.7366960455725868,0.03254674935279443,0.3447825164867928,0.44131221239210006
24,0.8280710252465254,0.22308836897470846,0.8422546042208673,0.4987241252881329,0.5910950313435581,0.713090428275935,0.7076578166275987,0.05761674563046784,0.06312514495572252,0.6642485356962536
25,0.7652459445044718,0.27119862757596597,0.7844092596500029,0.5235588105157989,0.5151113954640557,0.8404485256352343,0.6722451450389004,0.08776535597292051,0.14522701599153579,0.816083112790628
26,0.690626530340233,0.3341062060285364,0.7170104520159064,0.5447816998513915,0.4397608393685252,0.9999999898215467,0.6329027194966069,0.122926793969044,0.35379435327454073,0.8979457675412169
27,0.6218554780742443,0.39468210506811446,0.6486817315877978,0.5524338204052458,0.3440545311849053,0.8002892767167372,0.5927135382436381,0.16109411652054298,0.4308475687341757,0.734178010958804
28,0.5818520418925975,0.43017020636187747,0.6104281394718923,0.5575716269294162,0.3093168397839493,0.5347755242482751,0.5588575804024114,0.2008878380736702,0.4539592641550046,0.49871025322266993
29,0.567452708403516,0.44679958017441096,0.5999288676694441,0.5612790843789034,0.3065653117415527,0.2904876169062568,0.5324858389995029,0.2404405608389565,0.4259189643130306,0.36875294022459526
30,0.5726387396312917,0.4469670485415673,0.6060647025153963,0.5526872259934434,0.3153792633074412,0.021774116549938917,0.5228259204274267,0.27791492291368963,0.4882847051846916,0.017080393360353722
31,0.6088500835831558,0.42782761200475794,0.6433724858920858,0.5363734746948147,0.359457174985617,0.3861572689564855,0.5303795121739053,0.3105280001277677,0.07805242013141646,0.374846101969535
32,0.6529733300185743,0.40111639760354184,0.6870942831556787,0.5193793968059435,0.42045162700493477,0.5105449140018113,0.539369750606582,0.3390845448371765,0.16893511125351396,0.4575872927187349
33,0.6892028595243612,0.3700573378723446,0.72053140387698,0.5152391267181241,0.46067427180291304,0.42172418939975553,0.5439872204651175,0.36495570609909006,0.6956287385381477,0.3718327843518106
34,0.6882645180014249,0.36488321185925515,0.7211195538492464,0.5246640569422881,0.4559803495187515,0.0,0.5451391373397614,0.38996625298482096,0.3013306366907878,0.025202603547960604
35,0.6617134115730258,0.3816535364777617,0.6915371998381512,0.5427152928969445,0.4042097872870276,0.2667031910939551,0.5466911374839096,0.4140772632021576,0.37233190497959806,0.27146431151711037
36,0.6124102618891946,0.4262905724589708,0.641393440715108,0.5603306917101738,0.35174265365806423,0.5757649442772421,0.5401995284029789,0.43762291660069014,0.008740693131132895,0.5780543003773544
37,0.5513576704372984,0.4768364583243845,0.575385528285723,0.5775011218465815,0.27542911168039524,0.5909480949901575,0.5282519659098346,0.46011071000521736,0.23912980117329183,0.5094431405303751
38,0.5077516133617885,0.5179310567188385,0.5296449459821528,0.5913688739776403,0.22130041781100374,0.45210993092278046,0.5191810549797354,0.48116281913238357,0.3555427190498235,0.4050471784053151
39,0.4871270852428095,0.5393815955384474,0.5097670665136519,0.5967653010695155,0.18994884446339713,0.237508848817703,0.5068293205992849,0.5014744772673172,0.21065904929208518,0.2770698268827766
40,0.5018167260418736,0.5350588779195866,0.5261875779018738,0.5847661878963528,0.2109048726705326,0.12471352169159451,0.4977602848048228,0.5202478165885176,0.19213874587026916,0.16469447796813363
41,0.5331614718549149,0.5165789705261152,0.5618103910877185,0.5573847852762035,0.2896322531614727,0.3105271564461371,0.5021601810191645,0.5363801774953354,0.04381040992526776,0.2885491646993542
42,0.5713839684327028,0.4883956422390405,0.5990943305466347,0.5346207882343431,0.3456743341839783,0.4025062704718891,0.520297150438708,0.5513461835869805,0.3053812566031314,0.42305128235436895
43,0.5905386675121262,0.4668568173179289,0.6189563140699317,0.5266336273729372,0.3797675254069083,0.21663298210760587,0.539687416580933,0.5663136485073408,0.2924188663247631,0.25789053686855323
44,0.5907936535372486,0.4601932527407416,0.6210943186988848,0.5554316450033496,0.37522324422765563,0.07657050998191808,0.5512961842414064,0.5804810548163032,0.0599400973877663,0.08393865054722768
45,0.5787279844280896,0.46058215194035035,0.6109606536359773,0.6113874728618107,0.3706331809568846,0.1808986211071354,0.554954285889222,0.5941206769693455,0.027663767008511718,0.10610221190023811
46,0.588676596716358,0.4475258228990961,0.6246947502859349,0.6683916121668992,0.3706703670554306,0.1897146701479676,0.5537728441519368,0.6071144411334236,0.08280377591722309,0.10981471337878636
47,0.6000609401791706,0.43439014105788587,0.6415682961122652,0.7071680172070591,0.3873989444491757,0.16073589584981543,0.5664972717155642,0.6185651759750297,0.03086371322538882,0.01620721141702786
48,0.6061796525120184,0.42344647572483296,0.6511297071480884,0.7301405882557752,0.4046058639997056,0.15153604972379123,0.5929372860698104,0.6287540561469754,0.20175636085748275,0.14498588726923098
49,0.6190136929847688,0.4289831034918348,0.6616766667861049,0.764623793028075,0.4115315379949265,0.2890099806795107,0.6139247644040055,0.6363713969375191,0.005572862955187032,0.23478618215775002
50,0.645284282316569,0.4195325434766538,0.685679544033172,0.7877252576144285,0.41857433831012064,0.3134429362211144,0.6272382041250443,0.6425307590508185,0.003817766829836071,0.30063831083312287
51,0.6748553736749958,0.4042639651816149,0.7163984581258228,0.8054323934598934,0.4500176430548172,0.3464158430822479,0.6377823838675734,0.6473578936353592,0.03471444582600834,0.3113375054986238
52,0.7089879669010224,0.38137631423846763,0.754326183365209,0.8316495970873187,0.5004508142149227,0.35333854727795594,0.6524344527814804,0.6507401128305587,0.11641058242614272,0.29354891808374456
53,0.7251977380725821,0.3663728591901688,0.768513314453275,0.8465119220820329,0.5160233199940608,0.28419012548410055,0.6659840626866789,0.6534564895228824,0.038188109274068606,0.23157176145131556
54,0.7297957562878467,0.36562753384435304,0.7698247299320099,0.8570242498111539,0.5003270495341564,0.25184794724935244,0.6779841893407832,0.6551992551041683,0.09973099135919494,0.22827289412351015
55,0.7184826085017052,0.3696984425333499,0.7615429424845134,0.8607085742294253,0.46837633259411254,0.21775356014290426,0.6951912857463659,0.6565990880729465,0.11483415811871235,0.2513776642188217
56,0.7170655643769089,0.37226610485220823,0.7616939539638755,0.8569860718639635,0.4412487024064183,0.13223476607016846,0.7144281245075119,0.6564780574077734,0.19743382665552195,0.16818401919937556
57,0.7131864622857635,0.375607805607058,0.7605812378001151,0.8463148031755044,0.43908609642156904,0.02655597747102188,0.72877235346089,0.6549929994723898,0.004895983159058961,0.045419526273933496
58,0.7011940158994993,0.3817431400238868,0.7467199735885686,0.8240928286531826,0.4299806839916547,0.08714711892187879,0.7311028423040313,0.6529422173021434,0.27950674317784907,0.07381286604292531
59,0.6842481763149734,0.39549348809786417,0.7284475845849356,0.7538136796736765,0.4188782763717222,0.3142021421699372,0.7231599397797376,0.6511078148420341,0.15643160854564514,0.22679829903979154
60,0.6727074912524014,0.4095749197511144,0.7149360311677257,0.641717410375981,0.4465316595236278,0.45811563217238543,0.7179999954839784,0.6491799704796306,0.004476700851841881,0.3517738100365033
61,0.6644055589682601,0.4316502708022305,0.7031094479413605,0.5158655860266331,0.5055130417397649,0.5060312483350975,0.7136425487274205,0.6472821250746117,0.0030422388432535664,0.43545629227936883
62,0.6693087817387214,0.43912421995901074,0.7080610348701448,0.3977008152007991,0.5661813909931765,0.517728047088642,0.6980273613003325,0.6467988028261366,0.005796002343645423,0.43820318646980727
63,0.6703926133216551,0.45356302052768677,0.7097062651980123,0.31401548702685333,0.6008601239470657,0.5421415808257917,0.6660963453691559,0.6487878254412577,0.12177707347601804,0.4864761414538015
64,0.6535886119108558,0.4746924303305244,0.6975538150951056,0.2716964042893028,0.6088109822023358,0.5021789826420755,0.6232866223849984,0.652467400608796,0.15197448326237836,0.4733489480500641
65,0.629617783942509,0.4913112332348415,0.6798218882281708,0.2616506562238366,0.5985247246418716,0.42408620162554134,0.5878167217038576,0.657343663195449,0.10110916928853483,0.3883142492724477
66,0.6027566608503292,0.504710935294679,0.6592763790614048,0.26422476378140686,0.6141404913107968,0.37290924202434994,0.5652678610121334,0.6627337309633201,0.1310646819499371,0.29706567815154006
67,0.5802629861147994,0.5166948959930967,0.6376102057582874,0.2634145408290991,0.6015370265672463,0.2819547658467148,0.5520216724753955,0.6688394776603824,0.09041489538222838,0.2367552366823305
68,0.5571745622625455,0.5361227034956055,0.6159042925921486,0.25725483622923784,0.6040701811340475,0.24892673141512975,0.5367351232528289,0.6756431831625803,0.15639644519012014,0.25353960017646887
69,0.5376941240547778,0.5546343622317853,0.5970993894244307,0.24859821929893597,0.575981482769906,0.17045698845643456,0.5196842648269431,0.6829969342534012,0.10018656599029387,0.17079283844570853
70,0.5284082541176324,0.5622939602968045,0.5893660120862234,0.23873329372072086,0.553320813902761,0.142538192144067,0.5049350299759277,0.691065579734252,0.05261407117398489,0.1731244231933923
71,0.5328311809149774,0.5587283253917914,0.5947149976449347,0.23286589405249583,0.5495247502876918,0.08335555287185077,0.4922284097589407,0.6990862399565954,0.06915969508136398,0.12183005777628078
72,0.5458190786821557,0.5499548973292135,0.6081073314731688,0.22522599548257086,0.5527491349878022,0.18689929309600042,0.4797191247441867,0.7071698377630372,0.03071913467823983,0.19734558332376095
73,0.5542473520560361,0.5410994182716669,0.6187178748919798,0.21537231054921804,0.5636743502757259,0.191286940400213,0.4655514421274379,0.7153646899280535,0.0036160209120540956,0.20893311184601696
74,0.562674338577285,0.5330058136854661,0.6265863677643452,0.20593515960398756,0.553045040371991,0.22388957200455428,0.4550723834745949,0.7235231450940711,0.0024403618143352323,0.20468144754491313
75,0.5654888337651716,0.5304795660774949,0.6310133885016356,0.19884878381613458,0.5396942374942528,0.26131483523937665,0.4446898918326281,0.7313546223474745,0.05371474046607976,0.26068927182608514
76,0.5584417093198185,0.5382063162969177,0.6253385360664048,0.19431482785708248,0.5245387570194027,0.24770861720339654,0.43498924589699145,0.7387567819914113,0.05353323918643771,0.22885854430941766
77,0.5443861801421044,0.5508519269483757,0.6092597874999285,0.19615212811199795,0.5012547408551482,0.22075582476842293,0.43302091519355096,0.7455805553500667,0.009191315994571752,0.15160228377612084
78,0.5266905922808006,0.5675358525532431,0.5891434688534757,0.20527345205354758,0.5009768043584825,0.26744941810803274,0.43556844913410026,0.7514235204754712,0.008718403598599501,0.21685039478128618
79,0.5035412874946164,0.5927387816798447,0.5621839457998283,0.22219074567120087,0.4757619696034283,0.2786846179442098,0.43902956076747296,0.755981754542178,0.0118425686453018,0.2226074357007747
80,0.4733400378388158,0.6220819470764325,0.5244628678480298,0.24547941780134808,0.4356693935023741,0.29000707857594926,0.4464890279933321,0.7588284853288048,0.0030992381468772554,0.24962523591219002
81,0.43162121516488045,0.6609803843981717,0.4728169419038681,0.26339424752229396,0.37892551843020267,0.3458478107693442,0.45134920612979085,0.761192585315122,0.15612166016775011,0.35527196226032737
82,0.39652747622435297,0.695435719934541,0.4297786702837444,0.27847966966151894,0.3346928362376223,0.27007674216396577,0.44989782668861733,0.7633442055239762,0.14674063589677902,0.3052866220918874
83,0.3689201906813026,0.7243868902172771,0.39483143476875576,0.2915319536203562,0.2934158384809384,0.20160555981777756,0.44471609129445094,0.7659796274777373,0.16663546957498265,0.2602527883993966
84,0.3571858895259083,0.7364785245298767,0.3786493625585077,0.3169249556256995,0.2667902751067281,0.08876923238640645,0.4326316261864018,0.76942347063751,0.2926917559094552,0.11737037561928072
85,0.37275148245386114,0.7207017413211022,0.39210528016751417,0.37455702264533575,0.2560226274114794,0.30891900291885305,0.4194472953282866,0.7732837868367081,0.3063967050738753,0.17430315414559505
86,0.40338754786477676,0.6790141087523013,0.4250019387521394,0.4515921604805645,0.2737987107208914,0.5748013157796905,0.41563276553912815,0.7776609382438638,0.1415566340398703,0.4567800058695194
87,0.42464883967574973,0.6377583564885854,0.4483371863009194,0.5096205344194283,0.30976006925526084,0.7101020973481896,0.4290654385186993,0.78087105723651,0.23931038423346288,0.6024118999255322
88,0.43658550213933645,0.6053853911186231,0.45943255604822514,0.5401856893923269,0.3207761503161514,0.5849937662007686,0.4586513634020207,0.7826195935650895,0.3186608236698473,0.5343265165315686
89,0.4481270235714328,0.5911030103574627,0.4696615967823133,0.554234656926851,0.33757781596603065,0.4078204490313671,0.48199532932200967,0.7832512798322315,0.6611067506163216,0.37661036428405414
90,0.4589155060187813,0.5914926402145393,0.4803039320915326,0.5374511452943197,0.364471044943724,0.06258964036378718,0.48592184617999856,0.7832892494228474,0.21526385547547439,0.07686277846679285
91,0.46355170663302586,0.5993982135760467,0.48968253975758536,0.5105074739932235,0.38973121123752713,0.27500055758938563,0.48962259464468216,0.7831609559339242,0.08380551755577255,0.3590812519945176
92,0.4664694026985964,0.6193190323812092,0.4936406301115852,0.4852119242472949,0.39944649105071234,0.2063641660832542,0.483537437431847,0.7825841701154667,0.0679217978089571,0.19127981994755006
93,0.46142516352671764,0.6344520386275155,0.48936462085365695,0.4635064915577649,0.4079087484489567,0.16992454803824605,0.46678331907364307,0.7817010091652613,0.1496690341320143,0.12384139945389458
94,0.46186512908265787,0.6406333979883372,0.4902230018942834,0.4391857161423194,0.4192742136489129,0.1132616519724977,0.466472321467932,0.7803028421378823,0.03487148482195866,0.1618772317832763
95,0.445733944455269,0.6616934055078748,0.4751615938203868,0.403519886936484,0.4163658180206708,0.1846472785450794,0.4737865986387489,0.7788177474280629,0.024226984743661483,0.15095894110425126
96,0.4373180635336054,0.6814566675494477,0.4642251835250343,0.36128480879613356,0.40626004419593326,0.1841528576247453,0.4812794634056013,0.7774055878175146,0.020950313734018528,0.1894618823509311
97,0.42965786589080945,0.7021782592579676,0.45672229739218767,0.3175395511169883,0.4004628642756551,0.1999313421678685,0.4859577723261233,0.7757678998262495,0.021341662434734354,0.17882591741843243
98,0.4263483972130827,0.7194476793397308,0.4573104473644761,0.27618283827934537,0.4158299988182438,0.18392371521121986,0.4808931022868732,0.7745919718105826,0.0036881246422258923,0.1268616211809537
99,0.4316629066940331,0.7261364689444461,0.46752359215336015,0.2416731096149967,0.4523492921305242,0.1905868688910757,0.4625841704110567,0.7746074117018764,0.08795313531930071,0.1776241792916195
100,0.43792844181902324,0.7294022196121523,0.4752410735463634,0.21537841126187363,0.45140087197253764,0.1440253230003471,0.4416884273844516,0.7756750221389386,0.0035798345359786977,0.14226000510682332
101,0.4382975675420026,0.7374223548717616,0.4812179489403405,0.1930718388086189,0.461101421983888,0.1835522330536823,0.42111015481315306,0.777939043052041,0.023105679988396077,0.18029320266732304
