Frame,Center of Mass distance,Symmetry,Grounding,Arm fold,Leg fold,Kinetic Energy,Potential energy,Bone length coherence,Torque,Center velocity
1,0.18800371751588427,0.38798110357615057,0.3203442604146355,0.46188159157955777,0.07662298830746499,0.1718323202540456,0.5547626928688197,0.9999843857673737,0.011939082042989093,0.42785514119292445
2,0.21376540261673793,0.3700374911153264,0.3683658906119405,0.46562239094419516,0.12724338666261875,0.1718323202540456,0.5547626928688197,0.9783202787524067,0.011939082042989093,0.42785514119292445
3,0.2506589830153123,0.34995646755772186,0.4314798204035805,0.45616718727580874,0.17762363519128752,0.18094698762364994,0.5114091363730077,0.958087475390638,0.003263439274106742,0.42937292754071205
4,0.30277986614415464,0.3236119151458277,0.5155627237780427,0.43297159640961996,0.23535892916063017,0.19699645805665503,0.46495662602523663,0.94026548538855,0.025787975738541837,0.4524202186813589
5,0.3698571632249355,0.289786698616976,0.6115553488671217,0.40294986211731787,0.2868477810226589,0.23293685458703625,0.419164886869454,0.927732173093955,0.028495929936529753,0.5253367918554825
6,0.44782254323907666,0.25370740120205965,0.7110254280269305,0.377891268754348,0.3295293651860116,0.26337601938593824,0.3740580253826638,0.9219366960476452,0.029297767806836458,0.5393979840259527
7,0.5328853326708979,0.21348511389266014,0.8075586594661901,0.36593520849073924,0.38521620177165894,0.28807294593233984,0.33173968382820684,0.9214868750078891,0.04772080649647991,0.6188604502204247
8,0.6112092948389662,0.17854382908447466,0.8867075990991814,0.372110368920882,0.44224422987280815,0.26603547750131,0.2956455957279104,0.9229889171384836,0.08198583645719626,0.5853617246820279
9,0.6785882606068401,0.15040542790729072,0.9493032616460234,0.39839720535787815,0.5242734010106593,0.2332985429979738,0.2655392125875052,0.9232837397614596,0.027404137068308583,0.5318467676572771
10,0.7401952994877582,0.12928436670827206,0.9999996273940875,0.43997890667459455,0.5901107874512109,0.23886521088436596,0.24119112429964448,0.9210490748370084,0.02456423243023681,0.5208056244305123
11,0.7799965496598805,0.12175179641811393,0.9696124869833013,0.48616980390220355,0.6143206622049387,0.23281421123152093,0.22497987037339334,0.9159655667160509,0.043101692602274824,0.4675562265941141
12,0.8129069831492861,0.11354299376253471,0.9459628207549502,0.5136669370974795,0.6263914573478054,0.19533887754776968,0.21578844061073338,0.909578319854707,0.034933996847017,0.3893295627001796
13,0.8456268328774609,0.10079825436833686,0.9266543873386698,0.5142684866953775,0.6370758441763335,0.14447190891587222,0.2079554049250056,0.9037694138188637,0.020452602453386905,0.2663408439807137
14,0.8758682723058295,0.08556201327181438,0.9105047034230364,0.4965008020255754,0.6504653501229731,0.11525509654845406,0.20159206075056763,0.8994739818875808,0.055203519612085056,0.2164161730775143
15,0.9022681060698755,0.07119733564633042,0.8952590086384278,0.457892225258064,0.6739584064999236,0.08109750771939446,0.1989780252292442,0.8958806491077834,0.07312553897226821,0.1851515274724185
16,0.9183416880150762,0.06590783429312982,0.886286134644356,0.4029027070472407,0.692429501473337,0.04452418682767574,0.19962422956729325,0.8914865000601951,0.0014142540417394571,0.03611565352404888
17,0.9198512911804636,0.07010083309404085,0.8855519227142219,0.3434456832969575,0.7126342833996634,0.04988784355437251,0.20191145549946438,0.8853931495476006,0.054007026398193096,0.0912709567691717
18,0.9002325934445297,0.08476530715267003,0.8989449610260316,0.282748035383295,0.718767230406196,0.09941773939985386,0.20590407472387676,0.8772484368740634,0.13854974017996755,0.3041782036739214
19,0.8528317610923475,0.11408089441847835,0.9287929843603255,0.23595812364528732,0.6984249967075868,0.1830960771980117,0.2112992159454686,0.8659955795349167,0.13598341330268712,0.5265326007320149
20,0.7813139882749872,0.15664517955542873,0.9785243007560029,0.2134752206726889,0.6630732940374897,0.27448038163512845,0.21771798430156353,0.8506958396623302,0.11079818881369821,0.7142153739009316
21,0.6938973383904342,0.21118153324653602,0.9519928899337029,0.22273069022975236,0.6072283526790313,0.34673022806314907,0.22609389301234778,0.8312761153247183,0.010083106091428984,0.8035517158862173
22,0.6096585460605183,0.2726429026965289,0.8748380877742485,0.26667051487894605,0.541811267586968,0.3619917481843708,0.23418806901427738,0.8088333539779434,0.043320203818162394,0.7912085266393292
23,0.53864949558026,0.3358235619899678,0.7995582811929716,0.3408319173761952,0.485169175726457,0.3387991906619016,0.2410074062239127,0.7852649787345246,0.05968501224770884,0.6721170385378489
24,0.48590859211893683,0.39903935329757306,0.7367779487083308,0.4402258001784259,0.45442065607979454,0.31254378910162267,0.2502648306081806,0.761927579545134,0.0600620945917141,0.5248370878558705
25,0.43657409207253745,0.4602260768199372,0.6734540313261203,0.5440623550268279,0.4320136839035666,0.2883941758298074,0.2640135305622657,0.7404454327317549,0.030071782051956545,0.5184010163345066
26,0.39083797331163966,0.5143522863196012,0.608579780030581,0.6303500449555708,0.3988210815171387,0.26432692292968346,0.2870470911596113,0.7206031765782019,0.06206906700258723,0.4427691574573358
27,0.34347580981407494,0.5638838500153726,0.541977971252364,0.6849370678157609,0.34490185898668774,0.23585542128834883,0.32408871980511206,0.7024263049117432,0.013029859482679877,0.4747060526589022
28,0.3025569805817537,0.6038638219637461,0.4821449114041154,0.7039024691950689,0.28620907343221225,0.2220699472778739,0.3777962992004841,0.6854346090092099,0.057849564206248094,0.3663452706920127
29,0.2749389163125669,0.6305779954760131,0.4377839159416548,0.6902172078470689,0.237293585789548,0.19922646045412146,0.44128521927583797,0.6694502616209279,0.07586795449925046,0.2777771910426904
30,0.25357762188349553,0.6511155082121506,0.3983866696945018,0.6583306225426401,0.1870362251716139,0.1676059050103184,0.5000752731402605,0.6543451486271737,0.08714918314753255,0.22924578399659098
31,0.2359680145693893,0.6612024341333288,0.3678997479463539,0.6193291784232346,0.14759155799704476,0.13101635010517873,0.5456977354485381,0.6409424110894013,0.07223926749874264,0.1916062696309334
32,0.22265517492192397,0.6646775358196847,0.3416423634833795,0.5853589936281053,0.10115998641868275,0.10051940213020412,0.571450121657347,0.6297032972304677,0.03337229910217443,0.1998852212764549
33,0.21706689950147487,0.6611842344944385,0.32427147514033905,0.5670238878207282,0.060070802172555775,0.07935683539916218,0.5791588926201409,0.6210123799287299,0.043703086577022855,0.12674477397843675
34,0.21678091009246245,0.6573483169479604,0.3172406140405888,0.5688439743473797,0.049674155039359146,0.0587177006648713,0.573249362453559,0.6145587464018142,0.005898229142960221,0.06254960645171026
35,0.206827266860478,0.6556225496733097,0.29495065469299786,0.5885925861131425,0.04967813734096869,0.0679137748337203,0.559663735644984,0.6099671458195318,0.03766683434760997,0.10966497327765015
36,0.1936160898212253,0.6573975975754972,0.26919813401159753,0.6125956829334481,0.05509348589098762,0.04471236459898537,0.5454810909150866,0.6062566183837744,0.02059267632734757,0.051503215008465504
37,0.18108111979697583,0.6642258744159718,0.2486059466728434,0.6393232786634845,0.07992119990235798,0.059193988395538896,0.5313111957923435,0.6025960847298332,0.006889897349263196,0.018345147941425118
38,0.17320320847413312,0.6739237839421582,0.23514886959227854,0.6650051515236775,0.09472575714968955,0.0715567014224968,0.5134552877915906,0.5985763076194289,0.05306737608847738,0.06650532058410624
39,0.15851718715701268,0.69006005656134,0.21268615449642028,0.6886202016193858,0.10506939339533919,0.09629789316895175,0.49720773570510557,0.5935525580062547,0.013157856685464046,0.0829619830109681
40,0.1449078202918118,0.7067276115768921,0.19511123565758326,0.707617789659136,0.1051236833354592,0.10184344157552641,0.4859194728285206,0.5876495783807382,0.008864704253142827,0.027010933763040902
41,0.14370561190976375,0.7070073770759145,0.20403347434612382,0.7083288779277309,0.12224996138762541,0.10046219825599964,0.4741215581191519,0.5806923889079497,0.07480444679434373,0.04442856784616666
42,0.15337004081650915,0.682804309940135,0.23165056568986256,0.6786599172854528,0.14777461497443528,0.14847792714298316,0.46181374287915994,0.5730837558438151,0.06698853850716845,0.20635382757328138
43,0.16381572079099235,0.6426997664538266,0.25724820190729675,0.6089523068255063,0.13393216672374444,0.21863607212999012,0.4430921830970265,0.5656583626623192,0.06789208062767416,0.2224506699146198
44,0.1745559487765333,0.5883809132769042,0.2882489230791694,0.5061961387365116,0.12491392450976226,0.27535326147701616,0.41847266063263056,0.5589935435651904,0.04182220597074263,0.34533279985327087
45,0.19979064214011086,0.5223942281959677,0.336763502868513,0.3956429455966905,0.13049955038269473,0.30093390965968514,0.40174316791493764,0.5535363695530044,0.016198277010608025,0.5089643174149062
46,0.2402038169663585,0.46197695006210954,0.4055202906789987,0.29647279072861565,0.15781291017671675,0.3054606507200379,0.39532735060539037,0.5491049511912095,0.004642072705277901,0.5964623708386788
47,0.2894265556634329,0.41419555966658717,0.4834212189581269,0.22686501409176052,0.1870164581293484,0.2960303037442604,0.3878735508768426,0.545750238392402,0.06959096477372696,0.6292731654279968
48,0.3376707344712138,0.3901089338624509,0.5493588116697263,0.1946532616823079,0.21139451021256156,0.2338578999726943,0.3610904701211491,0.5428760904634284,0.03591584460368367,0.5055314624931776
49,0.3826229959048722,0.3727389986085461,0.613275459981337,0.1825110166842488,0.24550562150661404,0.20749246408596436,0.31835074862476065,0.5396655257528171,0.03332858813639669,0.48500540587076857
50,0.411425406559752,0.36275762753449065,0.6590840294723841,0.18601756583335338,0.28082251252044443,0.1877212664037346,0.27635690873236685,0.535225959454386,0.029324812366623352,0.4132920894806412
51,0.41870731608810263,0.3610569035964786,0.6835274785785512,0.19859805948628106,0.29584822723846005,0.19275217054489302,0.2374288751044553,0.5290759934768271,0.0386864840135107,0.37717369189008726
52,0.4148783702028274,0.36105089198285567,0.6966375548888889,0.21969627064516936,0.29383916742486405,0.20195388494681032,0.20809948580085286,0.5207860242416944,0.0042901860320622215,0.405179641709507
53,0.4090684667822585,0.3693343821653191,0.708252400412498,0.25340848762179086,0.2632941307404964,0.23364179054649914,0.19041206807288716,0.5102863466441351,0.0022717609807780697,0.3703552135019036
54,0.41301762432134437,0.3884820850627234,0.726845982456638,0.3061466239929449,0.22229838150196607,0.2811112008814869,0.18721350000380602,0.49761398776797344,0.0028317430429461695,0.38849838325859787
55,0.43209151618550684,0.4174072742159072,0.7599078584181874,0.3747782848556103,0.21837924391417843,0.3112564545506915,0.2109213456703251,0.48294487805615877,0.006318589158673481,0.30062946216450626
56,0.46812094675290183,0.4442878013620548,0.8000944197220791,0.4384647193525869,0.23435444734862085,0.2739764709810818,0.2587928460470574,0.4668099853234086,0.06501702125631577,0.17018415639030315
57,0.4848459486491925,0.469568783522833,0.8172329813691744,0.4935742187054302,0.23507435585599096,0.20028806375199149,0.3143343416359416,0.45031842721640675,0.01894466041462811,0.11308021321924115
58,0.5119963099808822,0.48975069742161303,0.8408215873761513,0.531500490888925,0.2390673524757432,0.1708406559480449,0.3615438237750722,0.4341689318183994,0.057540951893024675,0.162154336680402
59,0.5260719928339993,0.5113317227690896,0.8539554920655641,0.5423503510245502,0.2588831953834444,0.13650115399557725,0.40048926980153315,0.4185215245651759,0.018578513899069733,0.05324530763434154
60,0.527088523203842,0.5275710350482831,0.8569176574388727,0.5174910747533688,0.28009722681235016,0.12815069893574688,0.4384222524072245,0.40359616543609583,0.01317646127213353,0.002249068784495766
61,0.5480536604609463,0.5355353912522347,0.873527526925323,0.4878511710535097,0.2696774337989659,0.10474791546193014,0.4658347266321813,0.38886821703688645,0.0410387049472207,0.13614180518407804
62,0.5586440724278212,0.5198272021305111,0.8813134497868977,0.4546747038500629,0.26463172045434724,0.06312767475346122,0.4825353596932063,0.37517945385746676,0.04048404008673595,0.0917082100840548
63,0.5595663280539681,0.5020148203349861,0.8804005250137263,0.4334579125793438,0.256467858985903,0.04734847881013637,0.4890205403881205,0.3626498223396798,0.01317219291189299,0.18893333944619428
64,0.5483072917777431,0.4877085986820603,0.8687514261952031,0.4232631402658446,0.25976062516877557,0.08068172618308703,0.4766048967353879,0.35119310019662153,0.07357539586701631,0.307063500707064
65,0.5263155703069333,0.48017339374080725,0.8452834513572699,0.426030453912707,0.2688041987353771,0.15036863602836661,0.44322653148406516,0.3406251598082753,0.12923357453080905,0.39559755744372727
66,0.4825681021889512,0.48810252514586067,0.7967390860940895,0.44056889342769845,0.2736513260874506,0.2216670369334032,0.39727373411059475,0.33062888756240594,0.10164921986336693,0.41098223289000724
67,0.42428719463461306,0.5104447424894868,0.7256545635030677,0.4625975536948469,0.26274570240908696,0.3067481256473431,0.3476557396871608,0.32117549711061594,0.08127150365938365,0.7008187781152427
68,0.35845885453144266,0.547021003306015,0.6376667845082847,0.49282997949121765,0.25023886515773264,0.3603829228667326,0.3006239417506411,0.3120968204980152,0.0222764267171882,0.885940324483053
69,0.295750621918946,0.5929689909819361,0.5451962917006927,0.5392954263715074,0.243629010804375,0.36979506068130036,0.2687981130539859,0.3032915013953871,0.01703863909810573,0.9449978955664626
70,0.25434815615574696,0.6419706889651103,0.47209678180444803,0.600786466233174,0.2741414582606881,0.36512306646486414,0.25651284601522095,0.29476103446639773,0.03940956926802943,0.96341811802177
71,0.23170641737103304,0.6853273512472601,0.4230058530963171,0.6739011440380512,0.35098005274248234,0.3515369965283823,0.26829412121512597,0.28651772406133885,0.14099742636304474,0.8277792591143671
72,0.24465345869096514,0.7020575766037165,0.426066310533299,0.733609572309448,0.46478483837429074,0.3109771341523185,0.31314819245628567,0.2784359684991048,0.12495822353050969,0.6199102205569716
73,0.2681785602191751,0.6688795671485855,0.45050231327100804,0.7196029615404764,0.5568018013383992,0.2254083826499721,0.38077994443195196,0.27071389693949943,0.19797222392562253,0.5359915526911799
74,0.31452112457666953,0.6039068077526702,0.5066062317945839,0.6654606617436625,0.6077469261510591,0.35266686434253014,0.4588917698567356,0.2640874194660679,0.12236039616922727,0.536814488147434
75,0.36621587856488247,0.5325688340303115,0.5675234828905827,0.5846183103183479,0.5988700479890925,0.4212005076681863,0.5458977248767009,0.25857528485874615,0.004300973172832662,0.5255276594945079
76,0.4114233833224493,0.4667740907008614,0.6200084663426948,0.49736153316062737,0.5769775565054984,0.44288521301089506,0.6304744813694063,0.25425987110557535,0.10980512302199337,0.4246542453270987
77,0.44242606645695526,0.42151283241931203,0.6547189682812422,0.41403358997894907,0.5501642970748287,0.4099983737743432,0.7085079582322943,0.250826881744439,0.09248900977838198,0.53680878328175
78,0.4652834768224395,0.39931469731514263,0.677038713102674,0.3318036069126361,0.5193102413890341,0.36140822378446263,0.7807605793624544,0.24784446607985672,0.10458661296399635,0.4807640096065639
79,0.4780159625366633,0.39128278195106514,0.6877287196635722,0.2552163271965466,0.47928175890991326,0.28445032488216493,0.8431107702440178,0.24513236714844885,0.018594968235944153,0.4326378057246603
80,0.47864660916537244,0.3904524327629806,0.6812548469246155,0.1858742880327998,0.43138447943569685,0.2616194604482805,0.8922269659087047,0.2429508240313391,0.1762508426559863,0.3664446569229297
81,0.4716748290439792,0.39281248047436435,0.6681209422352068,0.18272501179003464,0.38889598640923256,0.16252726714614404,0.9228162077893105,0.2411399053521503,0.07707545095180857,0.3147635208952553
82,0.45227255138001543,0.4032570597633518,0.6447467916398696,0.19014200057096767,0.34810506409003783,0.08893762983248336,0.9296095066410377,0.23964038436430435,0.07378533262946094,0.2714838727326525
83,0.42191576432866973,0.4179858081464986,0.6105173251038251,0.1962498135896135,0.32765433548743084,0.10723000801743177,0.9095203306125972,0.2383385124201517,0.24107366915440737,0.32056251719115475
84,0.380856405673356,0.43881023523987167,0.5636856245863978,0.20071895113129756,0.33506892312432696,0.24378065880304053,0.8636598635041041,0.23667460405300067,0.28051982889489613,0.4391657366526588
85,0.32921893722001533,0.46467628387517645,0.5070649280917082,0.203321974311812,0.38201621307241634,0.4174226597823273,0.7972703948913371,0.23397645810248546,0.42272087676788417,0.44462067713217157
86,0.27675485995761334,0.5134043699057472,0.44632043274397665,0.2886162851768767,0.42168868721595687,0.6751685866045837,0.7152572614628763,0.22916533830578048,0.3410044698642086,0.4927395200074071
87,0.24298524446102437,0.6015681618710306,0.4016943465643492,0.4180627557039863,0.4415208415467307,0.904444773909017,0.6184371603877342,0.2214931273098271,0.12208235808624043,0.4512371000073298
88,0.22794440019476866,0.6997475472107038,0.3708068101930621,0.5678634442274799,0.443736105177322,0.8532841980731796,0.5133517387330031,0.21153590346741305,0.644719196163686,0.340199171368667
89,0.22045736679692238,0.7606194829420073,0.3450825857118103,0.6888608040379794,0.4251213790539909,0.45977110234601787,0.4129784294278913,0.201164836807537,0.3378356662468539,0.2625568397270199
90,0.21888275306986762,0.7730583442712189,0.33469490171037797,0.7621379294304739,0.4004733648223921,0.1925573856282545,0.3215944271102213,0.19268370996348858,0.35187303835674455,0.3671941372505352
91,0.21337955796816424,0.7418535150612606,0.33150934528327086,0.783169532686002,0.3850271498221292,0.4524406575441738,0.24557483041007439,0.18704443849425048,0.18324726689590473,0.3002806357915965
92,0.20028591472791576,0.6762443771800484,0.31896966079695477,0.736238158540951,0.3318535812552005,0.6302845657792662,0.18916156565868442,0.1847293514322752,0.03728727016058808,0.31836901216977737
93,0.2053917022862627,0.5829900269420165,0.32856356192057107,0.6469589373774604,0.24596575010578423,0.6428947397086097,0.1630687904143358,0.18565308148593862,0.039438796350545216,0.11868855940209086
94,0.22500638763729985,0.48160751559040743,0.3602463704433625,0.543654398725563,0.14317765458707327,0.5999946272688591,0.17412666061231527,0.18944341449295565,0.10111745016066796,0.17103573629799498
95,0.25336091147377,0.3893011436250741,0.40565730385865945,0.4444723842814215,0.07047711267953172,0.5221316097600475,0.20960822937171436,0.195303196782575,0.24646220295872062,0.38543913653688094
96,0.2865029532451687,0.3275270744512359,0.45977155272977577,0.3639404976928414,0.037886028875562805,0.35746793470304766,0.2500851256989626,0.20237643823298843,0.40831700882755817,0.31244290892650356
97,0.3067463446562637,0.3003344076824349,0.49243877116295176,0.3128308129795062,0.057714090697714895,0.12077812066530941,0.2790205018903021,0.20959490846026974,0.10107956788919178,0.1686641676642707
98,0.3102025700577851,0.2977240816976747,0.49862968190043633,0.2921471755388238,0.13617286030132514,0.06300821262677138,0.29153082349604637,0.21596639696910686,0.4269975493077945,0.05464733470025551
99,0.2959018518713935,0.3311694070017327,0.4710662044096137,0.3045112399443427,0.23550327084500958,0.34272318541110985,0.2845706316856594,0.2201862911702422,0.5727077551285495,0.17321565691776372
100,0.2645794737890002,0.4279947007333573,0.4081414123768499,0.35506478135070507,0.3176468425601102,0.7065553054952847,0.25580662076944966,0.22090425532842128,0.450474431837513,0.39817334453191944
