Frame,Center of Mass distance,Symmetry,Grounding,Arm fold,Leg fold,Kinetic Energy,Potential energy,Bone length coherence,Torque,Center velocity
1,0.33366867359460384,0.39539757319500934,0.5260568833746871,0.5713960847921733,0.7862399631300928,0.031125906468100803,0.5886424156150812,0.030972943267791795,0.01806906352893144,0.054327982915649276
2,0.33194614654962007,0.39334723690677575,0.5243469577182701,0.5734056716559626,0.7797342444362745,0.031125906468100803,0.5886424156150812,0.017429925233983977,0.01806906352893144,0.054327982915649276
3,0.33256038936968213,0.39491555479814777,0.525821913998772,0.5743373887755125,0.7744430484227957,0.019312465158383092,0.5868334613283003,0.005947721918894431,0.00411999380923003,0.00027607770829805243
4,0.3331526131748446,0.3995331272892503,0.5271758959471193,0.5750935346610655,0.7695838758606688,0.030289972194281686,0.5868330006949317,0.0019855987013956385,0.009470193642155995,0.05299027715263127
5,0.3345744071754153,0.40565059722815394,0.5296442376089653,0.574277830264042,0.7673928774385982,0.03265315277135546,0.587632225699274,0.0020782138748022417,0.008067178440221456,0.06828000944736129
6,0.33516785547389555,0.4119158420801409,0.530879571654625,0.5707365417010414,0.765206884427691,0.03576238797134523,0.5888231816043921,0.0022499214682542364,0.026144641870007673,0.046494107089069224
7,0.33563902281223856,0.4180304118977635,0.5321823721547492,0.5666963894157109,0.7627742992379543,0.027106116255704846,0.5894546428789242,0.001417994765186675,0.04102941869306652,0.047257853029053665
8,0.3352818191433751,0.42189620126306737,0.5323359164994057,0.563867096588254,0.7590043385551964,0.012403071709255194,0.5891474135480943,0.0002197992319688178,0.00949508325008246,0.025680597308326517
9,0.3343379679789558,0.4235357260314631,0.5311168674600004,0.5622821615204362,0.7552597897288255,0.012120676603554622,0.5876693578610451,0.0,0.010925026992164999,0.004731315831955541
10,0.3373280520021659,0.4256449039394602,0.5358371928434984,0.5625795869446322,0.7588182887871141,0.012596522206883922,0.5859779534404628,0.0019920708460895915,0.08273135190627105,0.020537579201916335
11,0.3457180673430923,0.42775020477901965,0.5479346260589723,0.5636510228993892,0.7706334928095528,0.0736158641448009,0.5867318091337943,0.00976486476117405,0.12347601261898528,0.11147746538938523
12,0.36242280617266087,0.4348664729249472,0.5717223673336206,0.5715658420530165,0.7894722317256613,0.1525239720128496,0.5908884404077364,0.026967902582633384,0.19075578665713896,0.2544912782853406
13,0.3907336643487726,0.4490854506736526,0.6110506574312186,0.5853590686197565,0.8147006837537708,0.25507629917861446,0.5966651782074027,0.058783740320751766,0.09069901850080857,0.3897921960553974
14,0.4227300092920876,0.47037553845017976,0.6553621594418046,0.6015577697725177,0.8370420108802272,0.31017442300081965,0.6026637806943187,0.1046697295907799,0.08985171876839812,0.47666359904012695
15,0.4507191404498772,0.49114166105550905,0.6935086233714264,0.6187239081088297,0.860476595245744,0.2673966780268588,0.6084882694494226,0.1580049570426148,0.2617037303641567,0.41185104254238186
16,0.46586449722365497,0.5043394344478519,0.7133949424340896,0.6409458565305604,0.8760945953169068,0.15259207826149912,0.6127864988036535,0.21200660093278798,0.29085684100968007,0.27472407026188167
17,0.4661418001729013,0.4985845799175679,0.7144883642824069,0.6684058892965902,0.8795285932382163,0.04210929119037264,0.6163204554546382,0.25684908341335794,0.2661528117440277,0.017377091951283553
18,0.4571276745032107,0.4803675569982926,0.7037472394447537,0.697022461444138,0.8641374374031061,0.1856181241954286,0.6209066190519005,0.284969514672986,0.04644566619664351,0.20656436092053468
19,0.44122715942974255,0.45993260377970524,0.6822905804935425,0.720891455717672,0.8393433684802015,0.22420773855175757,0.6255118895570803,0.29890387458731826,0.0598565674007145,0.2680914478795912
20,0.42987578528506803,0.4420993154285177,0.6673781676260134,0.7348072151270687,0.8075915708458123,0.2015162002259086,0.6286142772186656,0.30046173108384633,0.007617917878121525,0.30204148098844025
21,0.4070387678569677,0.4219893319113934,0.6372648646373568,0.7459253110738412,0.7804280335205681,0.20463734057392446,0.6310743108664298,0.2929432713484547,0.051599056698118914,0.2837387009620529
22,0.3949924893616444,0.39938233797409817,0.6199934522928089,0.7564640113886038,0.75926047740367,0.18070615614351287,0.6339451992633487,0.2765740932049771,0.2224692246672022,0.2341271985800059
23,0.3873442404540414,0.38875689514979006,0.6074307331844317,0.7602470734911881,0.74821904678262,0.08083212543933004,0.6374612098615979,0.2569308219735866,0.09223678539922674,0.11565502477334133
24,0.3876105276982074,0.39186327945874194,0.6054788588637058,0.7567016894942739,0.7511121224746736,0.05224219076182672,0.638775370937105,0.2396263230092102,0.14744203756146965,0.09439022568929888
25,0.3930587996643978,0.4118259075961031,0.6100921684918368,0.7396506865985047,0.7697258088000516,0.15284011388003743,0.6358890288642054,0.22844478506380203,0.2720477849294833,0.20177505322741898
26,0.41153436798225745,0.4445505575754078,0.6309206914876274,0.7043686003013307,0.8005382927133142,0.28582235824533353,0.6280911340455886,0.22677679731154107,0.16725227689835176,0.342230706105887
27,0.43934470476321147,0.4871723167172947,0.6635814347399285,0.6510424547219371,0.8433807352051323,0.3821632441028415,0.6138942152724391,0.2353095266904355,0.030819605920871282,0.4156920303949427
28,0.46723740650590345,0.5337934300754008,0.6952208754573102,0.5838697573786173,0.8960849042888609,0.42820065707954946,0.5958562818333163,0.25484453409973523,0.0037157171007078573,0.46102919367075573
29,0.5010332436455425,0.5731572684901407,0.7376619281784289,0.525141462438005,0.9485211085085989,0.422762874358527,0.574361521896105,0.2852459522621061,0.12985780681129747,0.44991461883795686
30,0.5329952737831063,0.5982882294388732,0.7780301322466607,0.49290240323322176,0.970430498809768,0.33324850800729405,0.547235418917532,0.32485022380345024,0.13619673313486455,0.3991815270770248
31,0.5561934773578965,0.6173609485889299,0.8057448864574092,0.4909100245666309,0.9692447584133081,0.23443298606739996,0.5172631197261977,0.36835808519015434,0.009746463161278621,0.34128676385790035
32,0.5735829921950258,0.63258158450268,0.8256986719745434,0.5091792446246406,0.9618555130255589,0.22786635602489239,0.48816623352737454,0.4121403369040936,0.05085314697625181,0.2901799246086362
33,0.581164732082366,0.645122658527129,0.8352975199451228,0.5356859038300608,0.9389370561795272,0.21706369038424442,0.46295315630023803,0.4525882090036486,0.12337054386047884,0.16395713865944847
34,0.5771704243199388,0.6492799119676232,0.8327058775216556,0.5702548024731375,0.908908921332577,0.1630912457525866,0.44505572349582173,0.48978204192998626,0.1847188656678965,0.017340778271669
35,0.5677361737513372,0.6475362021274863,0.8228394901626523,0.5984079030958439,0.894732438757932,0.09705169753094586,0.4351767146877681,0.526075105321734,0.07160063580979185,0.09657746125523349
36,0.5558592908929119,0.6422462290741751,0.8097672830015553,0.6100881766646401,0.8864944650074343,0.062160018115188564,0.4328688927159151,0.5603165237381582,0.08990336006952887,0.07135626019157913
37,0.5409367119539702,0.6303255899119656,0.7941453091473472,0.6224337196678675,0.8507336157046669,0.13413102085304443,0.4370981892830035,0.5890303725340921,0.14634454193634686,0.21173819454330242
38,0.537216855384741,0.6217478286185607,0.7908673700318489,0.643481231365458,0.7932318571641048,0.23582793023492457,0.4490380467972603,0.6078956608248086,0.19907814608148472,0.23020505389967325
39,0.5446586326474758,0.6391578039895925,0.8001847200372236,0.6611343212037619,0.7407486034274494,0.28545665073714677,0.4716239882791734,0.6175507712902443,0.03971365280443688,0.11751034493792559
40,0.5686898336039019,0.6854293657858628,0.8265105958576558,0.6469232964221376,0.7198569257256444,0.2899460632459978,0.5006446078937503,0.623922093854893,0.06823668995748668,0.45656791370391664
41,0.6010451792239788,0.7473363343386451,0.8604136524440102,0.5873755878536004,0.7333401353293773,0.3480546102488762,0.5299150728527463,0.6288404240270032,0.009338009812362782,0.4677060403535041
42,0.6392111988414032,0.8055544204882693,0.8966198742002333,0.4919514733143283,0.7742338023055793,0.4040749370108133,0.5551642874493985,0.6337229845392449,0.026162102058315175,0.42194636717805795
43,0.6750012146555863,0.8526201317558653,0.9317745498384952,0.4219983578406471,0.8177219382380341,0.3769145775673823,0.5692353860532868,0.6404131077623366,0.14694302316651683,0.29323713242928323
44,0.7081162976528617,0.8888159421276528,0.9633930526906955,0.5251032051518086,0.8429044589291863,0.30285240504561356,0.5687429624479876,0.6489028898762338,0.0934042347436569,0.2693523984640979
45,0.7333060116865051,0.9065544763745507,0.9866224508938612,0.6090181755379801,0.8579586982660505,0.20154101916603384,0.5588531938054044,0.6574325960503755,0.1393544026547206,0.15888384664552896
46,0.739679752377147,0.9047306571161222,0.9943950517347964,0.6718619782655066,0.8561751330360576,0.1377427940065201,0.5464722346306363,0.6654049715287651,0.0018715088275222114,0.2265582745095574
47,0.7406308713871551,0.8942713872749216,0.9949720062420001,0.7152849596323991,0.8425528118019,0.14141389297023774,0.5332069022981739,0.6719576388096302,0.0024408719708204707,0.33539801274389275
48,0.7330620349829579,0.884889033621973,0.9870016588965725,0.7390013130555175,0.8289640535534155,0.1337572533579906,0.5201658904463997,0.6762480744670697,0.09408756457397364,0.2750146406015174
49,0.7217101288349373,0.8843307806685584,0.9761837618865877,0.7376390366909218,0.8308850745572993,0.06636853944547541,0.5136939578212605,0.6791475000436679,0.09939668447797244,0.10139187058649304
50,0.7074956685291489,0.8961416083281973,0.96413285726041,0.7157744887917563,0.8488719494149901,0.1385598332852795,0.5154656783352842,0.6831611754244564,0.07081016157624555,0.311915321704477
51,0.6855025561299135,0.9136563965922062,0.9442395589093531,0.6936732711356612,0.8561348032371113,0.18773573745185085,0.5184654402594852,0.6899029720319295,0.1335384348769762,0.4008675819174845
52,0.6662653808451723,0.9161295946069797,0.9267866850665735,0.6811012557222826,0.8635088291261217,0.12436046574999295,0.5175788300851536,0.6989454847122871,0.11073432636230289,0.242341440044704
53,0.6593734648243725,0.9162640393990134,0.9218313903071603,0.6835919195860216,0.8713387115575995,0.07126326902715317,0.5110128617653521,0.7100648937266101,0.010234752074635351,0.14066570340485357
54,0.6505822779929663,0.9001164215589651,0.9135748921376073,0.6966847717726312,0.8756681295249814,0.1176282304979451,0.4993058548739297,0.7217695963128336,0.02679776659910617,0.26729182825171716
55,0.6419792853588431,0.8845081953240626,0.9052928032439396,0.7140415179687266,0.874168395173972,0.12419942067425926,0.4851857668134285,0.7328163982964282,0.05799865179744807,0.28432353098413143
56,0.6337139736604568,0.8747142035835804,0.8976086067226504,0.7282069909370559,0.8778652981999827,0.0896456017751555,0.47225850261865127,0.7430301454733783,0.04012539919530921,0.18822620254064543
57,0.6259421213646563,0.871397653560038,0.8896359329477627,0.7276998848774607,0.8853781760015313,0.044073590374099685,0.4640948126419657,0.7532311591724696,0.026886462988833196,0.07850028051780401
58,0.6243379426075883,0.8760960298552236,0.8881656295261878,0.7172300893104887,0.8877487949407984,0.039326195904342914,0.4609297967548048,0.7637196217387641,0.024344161069624608,0.11813741027348389
59,0.6221795309143352,0.8773429516229418,0.887400234232365,0.7088056073066297,0.8827270741951805,0.027473791769381577,0.45908108992659247,0.7743683638258191,0.03301860923641988,0.04046068574552704
60,0.6213279554682946,0.8741287026872306,0.8875537785770217,0.7051780426482335,0.8783748653736018,0.011556270117986857,0.45721582217476164,0.7847382597961554,0.0021666447930710022,0.029721901024015132
61,0.6252578987108935,0.8719076615532727,0.8926742498284187,0.70420513745015,0.8801658242696415,0.01602769967737929,0.4562178206872803,0.7949430982923577,0.0037974454352920103,0.018149778285064432
62,0.6322123004507589,0.8714035541520688,0.8999885440648442,0.702926926895574,0.8824481639134011,0.025376973643406346,0.4553458040698218,0.8052274841627135,0.04022528814402813,0.011864640598591132
63,0.6341704193849634,0.871396070064408,0.9022382013570293,0.7019260261959479,0.8851144444511911,0.006572226680771684,0.45481931773514883,0.8155928361654651,0.012699569143586355,0.020699930465592774
64,0.6362864858512107,0.8719338415454783,0.9047530716081715,0.7012818658035068,0.8863612409910219,0.00393245318774961,0.45518974657716477,0.8257542473415186,0.014628807333376178,0.012541419292916278
65,0.63803437719234,0.8734210386523799,0.9069422417342794,0.7005481253720474,0.8861001418578596,0.002487879149669805,0.4557707615132711,0.8356989520483772,0.002167911496554244,0.010561330047992272
66,0.641863490369455,0.8764964851299266,0.9109437004132378,0.6999635878577305,0.8863189231004893,0.017524058131069706,0.45620502236469074,0.8454498038645504,0.040755835338833715,0.03244320004436063
67,0.642663015451421,0.8782920625230762,0.9117742357320713,0.6983414591914647,0.8869590202872544,0.0,0.45660148106622056,0.8550837159378872,0.004502687953838276,0.02388197398143787
68,0.643256529733286,0.8766879368625438,0.9123930659696312,0.6963764628856347,0.8883847422943139,0.000695528079432131,0.45652001050686386,0.8646719973827379,0.01283522787856481,0.0
69,0.6456222262077711,0.8701019397396365,0.9147823090296855,0.6927180355778371,0.8883267190465199,0.025684655273557077,0.455432838923589,0.8740752159155506,0.05449130384902388,0.05567825277259466
70,0.6425223541749643,0.856852180478228,0.9111507526355843,0.6868788075886997,0.883018535073965,0.07153065604630969,0.4536502329852829,0.8830630243819989,0.11763923863140228,0.14051269785134274
71,0.6359157937280531,0.8336744850833387,0.9021428177489832,0.6758088163344912,0.8814269507633539,0.1449908191584779,0.4512219916481833,0.8915640099535534,0.033251700081738826,0.24745779979392643
72,0.6234664936706377,0.8072921434624811,0.8866650825215776,0.6592361173983372,0.8881854464096794,0.17892075564416843,0.44922742113606806,0.8994203900978505,0.12705728423611404,0.2505511382620341
73,0.6183448807147203,0.785755993077347,0.8784690715180955,0.6320589237851634,0.8949199088331813,0.1221721316991236,0.4507677441065508,0.906552646929329,0.06270414971866729,0.08866957047750834
74,0.6296215955388551,0.7715902160169207,0.8886565061431996,0.5879794280879793,0.9008099035205506,0.12055069686953791,0.4583395509731054,0.9131964995358214,0.04925598066736059,0.17682684376344454
75,0.6503529886285744,0.7730484954926335,0.9104272330721177,0.5282630435789756,0.90083420780309,0.19473702477466331,0.47118867513597745,0.9203904535553104,0.002428343391041876,0.33518734125794153
76,0.6693830236534408,0.7671260360738825,0.929389959637368,0.4546614907723895,0.9015945097308545,0.21361378390959396,0.4863242879105406,0.928851137345489,0.033984476784393904,0.341720142465096
77,0.6915994713976886,0.7674571989044754,0.9513398216350512,0.3739870437321956,0.9088526899066024,0.24638118345781393,0.5014632442871825,0.9389693195148802,0.0075098921119520256,0.4249188400265517
78,0.7128222025307277,0.7596496989037507,0.9734409015479242,0.31842813084155885,0.9206911843651521,0.23002933555866564,0.5146503342255574,0.9506378491509634,0.10566452220496102,0.34276557699847354
79,0.723080871292362,0.7361124088222202,0.9846915144383166,0.36024611380439736,0.9347111951256938,0.16466872209648364,0.5269416526247443,0.9624111872985539,0.024555495764484857,0.09918978797920391
80,0.7265071251770173,0.7057230140756416,0.9880764693091818,0.3933546152484386,0.9415406005307778,0.1505890586525059,0.5390120534500766,0.9730319168225878,0.0073600082221387695,0.1482800568664195
81,0.7185874800392069,0.6755976719394,0.9819672655353676,0.4148968433123785,0.9235666127187753,0.16417951049573468,0.5481739760378344,0.9819295956042337,0.027299001277420406,0.3267141092160056
82,0.6997098628964871,0.6474875041952116,0.9660242444150587,0.42703841836209355,0.8975121667080068,0.18857401761211207,0.5539262793786001,0.988344376214902,0.025507751535476575,0.38636375605690665
83,0.6750247112840513,0.6138516105713473,0.9427297061868888,0.43748277609268077,0.8697723585189359,0.225514099824523,0.5571302515855705,0.9927054891167327,0.021722707976290317,0.4630443700458731
84,0.6470874561136541,0.5903439794823528,0.9162688974575081,0.4631153587539388,0.8465476990963637,0.22001035577309697,0.5607166694121293,0.9953834411971167,0.03349286033672948,0.38819207723189164
85,0.6171908842714362,0.5691875179339053,0.8848295296740791,0.4991176680113346,0.8334874542130496,0.1985724169645963,0.5641990097581056,0.9977220315367286,0.02316115680213589,0.30734531350327365
86,0.5806601839262407,0.5614584710354824,0.84651323639354,0.5311752400453292,0.8208669224541385,0.2221854941154311,0.5674989095856431,0.9995356412010266,0.004623633875383592,0.39495783143535457
87,0.5466914412992187,0.5470872897646752,0.8103395846498256,0.5618899832400934,0.7963336232520822,0.24580810979363285,0.5715013678060004,0.9999309943544983,0.1275564767638271,0.39108223134049963
88,0.5111240113951097,0.5142037361503609,0.7686383364984213,0.5844895360230615,0.766277523828589,0.33933387817757604,0.5720088191061254,0.9981112039731831,0.02024554727237762,0.5930271436167738
89,0.4864357292381456,0.48338702840056574,0.7336767545057183,0.5898739754830975,0.7684368306166736,0.3197939155702381,0.5706867772430914,0.994849454477216,0.3671614398372981,0.4779901922963798
90,0.4591977864546634,0.44679218357113787,0.694160023621495,0.5829164663086467,0.829518250595075,0.4568055542543101,0.5730459802082549,0.9919311585306736,0.1974208656370281,0.4991988339215028
91,0.43508931638251125,0.41607491144260766,0.6595218153243532,0.5697357327483099,0.9192102193939505,0.5614492325482773,0.5841406954293203,0.9884219907187164,0.04731013018700487,0.5163982957933305
92,0.41676376273853477,0.3897686159442942,0.6334262560209091,0.5577228118840549,0.976763570867621,0.5430676177277785,0.6033452637902956,0.9828381661916088,0.004093379142962529,0.5711076885439074
93,0.41090764884841335,0.36324036905597407,0.6247858969897049,0.5583991237585983,0.9601723221370975,0.5423352369883723,0.6284324468132272,0.9734329777562974,0.046787194818761264,0.7334548907147326
94,0.41888883833222706,0.33819233466860593,0.6365064486319213,0.5871196770120457,0.9225093771399362,0.5259149796022643,0.6576432398358785,0.959189516174796,0.00698048633451617,0.8039873740683405
95,0.4392621657696516,0.30806329111723346,0.6625810700701905,0.6468668678425004,0.8669299901425844,0.543680784522277,0.690345985170515,0.9393863062866744,0.012876025098789191,0.8723070552153206
96,0.466569117017068,0.26636862571470454,0.6951301447081976,0.7316710607220808,0.8020023796269655,0.5484221029708647,0.7319664907566078,0.9137105258608756,0.15649603315680932,0.7336339989442073
97,0.49494452950400114,0.21306665647331352,0.7251945926780978,0.827616164845069,0.7248422529807146,0.5300076406833129,0.7804675159285456,0.8824967905954683,0.09656797299365924,0.642474069499256
98,0.5205486227677967,0.15505828092845877,0.7487985460250542,0.9187052817487227,0.6476836304885816,0.5284110988108991,0.8285574073885099,0.8459891745705028,0.025063385928165573,0.4321557716956011
99,0.5471486291984748,0.11226162761463558,0.7724699658264752,0.9812709108104171,0.574881705195229,0.49028120196859887,0.8719395154092048,0.8055057989641875,0.22318452791501284,0.16720945384104882
100,0.5639934294083888,0.10818712287365313,0.7834716507641585,0.9999999214205344,0.516481155974972,0.39541234526124786,0.9064512888859857,0.7626069329928388,0.11973361953234475,0.05018889613550063
101,0.5673205644398099,0.14933821913245157,0.7818850258693627,0.975624334913431,0.490469853208834,0.31442429418221535,0.9303703790579446,0.7193630727040142,0.02544963141462226,0.2798423403661064
