Frame,Center of Mass distance,Symmetry,Grounding,Arm fold,Leg fold,Kinetic Energy,Potential energy,Bone length coherence,Torque,Center velocity
1,0.8523974842848402,0.2906678405544876,0.9841687697104742,0.29573447062123553,0.8164199228476229,0.037725191094686854,0.6816485833698959,0.9766883819077053,0.0021855063119136557,0.04842390041552769
2,0.8591615725621902,0.28893024962085256,0.9865720061328527,0.2965895330832301,0.8155381124256972,0.037725191094686854,0.6816485833698959,0.9780625744177754,0.0021855063119136557,0.04842390041552769
3,0.8684927595729105,0.28602267480711324,0.9901693034191817,0.2967042781856612,0.8162930997808131,0.049491217896688706,0.6801278317128681,0.97942490559816,0.019770376158349697,0.05451291319792631
4,0.8760866340517798,0.2840615614339407,0.9921323243648175,0.29759578811561566,0.8155018838123186,0.04327114474064467,0.6786553726907888,0.9804708152245706,0.007980095191416783,0.05617153541397872
5,0.8837688519868083,0.28094241823397104,0.994339069758953,0.29860466794357954,0.8144965460102651,0.04147449931030128,0.6765219386478606,0.9812493413835517,0.015873481265161832,0.04864697746919202
6,0.8885420640092396,0.28001189760213613,0.995859985891037,0.2995873658341224,0.8119635677082098,0.03761166400888734,0.6755092379663407,0.981759149315105,0.0021803266495674495,0.04612107332122162
7,0.8938820096273074,0.27839632465159536,0.9977512120378932,0.3000071805328088,0.8090457833490033,0.04323860159355472,0.6757605543760263,0.9823576415472371,0.03808632813189477,0.05597057270109519
8,0.8968551697801597,0.27730003202149817,0.9988319126932397,0.3004480586382541,0.8078012931252893,0.026246569224074673,0.6761665632856857,0.9829110634131387,0.029235765240601036,0.03533754801296339
9,0.8973849168185961,0.278102566025523,0.999119091888368,0.3005018131390644,0.807706411995339,0.017576290831705556,0.6764573185604097,0.983767467510744,0.009970329891812997,0.031404233115437115
10,0.899891173292617,0.2776726786711707,0.9999995228418482,0.30067105464044375,0.809860005107661,0.013722965837178558,0.6766365939871535,0.9845690287042703,0.02187908773769838,0.016053332181796158
11,0.8994330191617199,0.2782800421974962,0.9999692934528882,0.30092490464751526,0.8095932420239579,0.004427084032516156,0.6767281131278009,0.9852859481365561,0.016673293354078175,0.004213015353629019
12,0.8991899300801083,0.2788341075972799,0.9999031666645357,0.30109137368279787,0.8092860573053475,0.0,0.6765600949154853,0.9859465995157872,0.006391488333844925,0.005029871666473253
13,0.8985679599415396,0.2793730514355201,0.9996745569105185,0.3011184555995784,0.8092942551456466,0.0003336126062627168,0.6764928779876486,0.9865249883349474,0.008145455278254827,0.0016169004326138528
14,0.8983231401946529,0.27988668612888323,0.9996348808375082,0.30114120532679317,0.8105986615955764,0.00032424937751411787,0.6766636537954192,0.9869952808003538,0.004057119991918235,0.003602656538746357
15,0.8977171367823239,0.28090900347746334,0.9995555286914874,0.3014946042868293,0.8117253909961135,0.005337372048954938,0.6770898160799396,0.9874545870286718,0.013086128139852512,0.014829119205472852
16,0.8972659400144055,0.28140927803250526,0.9995404139970048,0.3017982599458629,0.8120853270259709,0.00041175127559378176,0.6775366509662791,0.9878808739245932,0.004787123703802994,0.001515088877700615
17,0.8969295873984614,0.28178742460071504,0.9994157177675466,0.3019930146331779,0.81004318588907,0.0034197569003846166,0.6780550122648555,0.9881362854378808,0.009806136571111007,0.0045570916623065855
18,0.8971026501979704,0.281779974482196,0.9990737478049252,0.30281640513066693,0.8073796689797673,0.002812523297078751,0.6791184232209082,0.9882046462268922,0.0013713980586080995,0.0024455144821718504
19,0.8969225970778137,0.28233173572386483,0.9990624117840659,0.3029241132855178,0.8059083648380381,0.010035312313664828,0.6808961491235223,0.9881735256902409,0.0019699753983303384,0.016238225227551664
20,0.8992982076212853,0.28227594076972123,0.9997255690043936,0.30390246753581546,0.8036405351407045,0.02314733401043531,0.683373131167218,0.9880357846062232,0.028944121077067578,0.036749544264279815
21,0.8998113927689654,0.2824754947064158,0.9997803597718813,0.3043398509806575,0.8022562090697329,0.011067552072471364,0.6860232645475869,0.9878023741502214,0.0030550778897568487,0.022399827086440255
22,0.9009771209267122,0.2822990727066457,0.9998351505393743,0.30502734573869933,0.8000092812095125,0.014863955967756484,0.689084819259453,0.9874139648981227,0.005564092442235205,0.021819712777434275
23,0.9031893319973141,0.2819496857874529,0.9993061362325605,0.30594544070855023,0.7992258786594567,0.018098200766164415,0.6920742346267555,0.9869631728640732,0.012273428175177068,0.029911743901081086
24,0.9052973629775598,0.28162153264861717,0.9988319126932397,0.3066350426583796,0.799204326197903,0.01548621382261217,0.6937175603563245,0.9865364071042837,0.011972277732537047,0.0265616160192207
25,0.9072731199595686,0.2817426358297843,0.9983047877232348,0.3069404991311565,0.7987724485251606,0.012592754638751811,0.6949371772198838,0.9860971004347744,0.018454346877334337,0.016073645893590005
26,0.908282453396795,0.28144291647714514,0.9980289445489712,0.30728035395682163,0.7977478089399836,0.004835944957565832,0.6964498321880122,0.985567101006487,0.004255715538961096,0.003111419788537076
27,0.9095217026620512,0.2808487986156776,0.9977398760170338,0.30803064008807113,0.7969872636923654,0.008272282038597437,0.6973713280230018,0.984992467544436,0.016602765169328005,0.008651890406020738
28,0.9105487545755004,0.2805123930345498,0.997486704884489,0.3089166491286571,0.7964940066433446,0.004019299574021883,0.6973415900673928,0.9844519891811802,0.010442576070907485,0.007537591294181409
29,0.9112637944216372,0.28044829899946155,0.997239201762371,0.30890007375044054,0.7976538722666745,0.002631764216118137,0.6965629122324932,0.9839942447449305,0.005696846347021941,0.0067156509779467835
30,0.912079473276242,0.28026883589587526,0.9970710507862791,0.3081820835171039,0.7997759417270794,0.004140216935068165,0.6960493856569097,0.9835815181830092,0.001348638805230144,0.003482737583312877
31,0.9147124297970743,0.2795311186878894,0.9964097829027605,0.30665345901369834,0.8029690249487316,0.012802643358501925,0.6957371247573422,0.9832424801164176,0.001872438822640339,0.010116109763842945
32,0.9167184306555235,0.2799100885667227,0.9960791489610038,0.30342019093012446,0.8063444768942867,0.019147099672536295,0.6945942671144388,0.9829450890028877,0.023082667725041778,0.027199607682498364
33,0.9203348709656028,0.27997676428340385,0.9950551284099595,0.2933170015154306,0.8121950631253216,0.04528814648218887,0.691763856875343,0.9830182657609816,0.044407743882510384,0.04896042298158219
34,0.9271279104205841,0.2781414120223367,0.9933433892600596,0.278083750765339,0.8296627348397215,0.0797006156725381,0.687463840562576,0.983523601944995,0.024004000796893847,0.07409254004304433
35,0.9380019326562695,0.27397507037178465,0.9903015569958812,0.2621829539975217,0.8568933489046024,0.10526892608444097,0.6796338794474341,0.9846862949352961,0.017494632113874246,0.078688058395155
36,0.9519952408940049,0.26684803281717107,0.9875544612740776,0.25139412044891035,0.890829053442951,0.13667355951165244,0.6666697781072609,0.9862667169457795,0.03357640673718085,0.13105492044821226
37,0.953877263466131,0.25981925819142176,0.9872805074366231,0.24843579508224217,0.9257249654763658,0.15864314846722305,0.6520657892666152,0.9885186602499023,0.0003706315121326809,0.17186820848694456
38,0.9477026808551807,0.24767298329789866,0.988493461668669,0.25712535269297315,0.9618562755423408,0.1810639319491416,0.6375844955921416,0.9910380371586174,0.05872403062275856,0.19597676299836084
39,0.933202594566177,0.23831266527852296,0.9918961572635642,0.27945174514077276,0.9882670488663483,0.14966042263872617,0.6255492363603333,0.9936757131236909,0.009786873958515716,0.17744728105260882
40,0.9099541483782421,0.22599470477698086,0.9987903472834203,0.3117930252829554,0.9999997618209806,0.17214716289526272,0.6134528224229028,0.9963261835867726,0.022189444603952002,0.23061919764340053
41,0.8806042163143256,0.21209882008204098,0.9912235533591861,0.35743577740538957,0.9996990247462558,0.21283008782743884,0.5998653202003735,0.9986333677211361,0.03464939552944044,0.29731114282683785
42,0.8460045411023427,0.19642501023390493,0.9757234341695689,0.4088719798250071,0.973194408999967,0.2754392108014172,0.5885816882005862,0.9999776964034732,0.15098783541762284,0.4042325974155662
43,0.8024500268474831,0.17544646555406962,0.9530513924490228,0.4647015147971419,0.8832105089076345,0.3833914009474182,0.576231528033547,0.999603071055474,0.2781833702690073,0.512586537890028
44,0.7561256035151452,0.15216627065806856,0.925136441080595,0.5253616131959039,0.7453934533862435,0.5181855100108094,0.569124093262177,0.9958032279918939,0.48416785913258187,0.5578513245039889
45,0.7059449375509483,0.11599503558282906,0.8862463321826162,0.5914323068139364,0.5773048342597363,0.747008315379429,0.5789636026098417,0.9864539767791667,0.45963338633507855,0.6449799089580446
46,0.6546118002914055,0.06941400942446595,0.8382080544503939,0.6682126715249549,0.39765772370036767,0.9511706659976484,0.6055571967101796,0.970336148496733,0.08014299314558183,0.6739483043380885
47,0.6096730826256399,0.06509431377523277,0.7953597849353694,0.7450657554530531,0.24295420233634615,0.9999999975766088,0.6452653320477546,0.9474406109594912,0.10341701391779143,0.6325155573934594
48,0.5721537440347713,0.1554786857023524,0.758423250298976,0.8164948971858305,0.11849093519075463,0.9667747062282858,0.6870193665738459,0.918797916112149,0.7096691179636293,0.6010162480626332
49,0.5500307491950867,0.26239805069972905,0.7376348773780396,0.8669895307194099,0.03588083460191603,0.7145830590606287,0.7162931210290666,0.8866342394425395,0.9999999997585634,0.48386775380617947
50,0.5387794523869592,0.31623544945756493,0.7297450068592901,0.8883337885555994,0.0,0.33773036435878695,0.7297286772760231,0.8536617163696893,0.6652656618266961,0.26018813164416055
51,0.533104461680513,0.3163727276075854,0.7263819873374107,0.8876857051631776,0.007206704879293137,0.07131471523340675,0.7329007327546118,0.8219247194944934,0.18034748638418707,0.08294250998582284
52,0.5301635247187053,0.28849325534041587,0.724451085117544,0.8746837595928794,0.03512080680545529,0.15016282509327555,0.7307402026487191,0.7923892073469876,0.028486057595267383,0.04128823970166364
53,0.5313718361613166,0.2616866120884235,0.7253126227029235,0.8596319062646414,0.058295506868608966,0.1622817407645273,0.7293488790752275,0.764996740122264,0.1755076408543202,0.12202422607445265
54,0.534195507328263,0.24891267332343184,0.7278934567854441,0.8492426307044961,0.06508260267687456,0.09192807243188117,0.7312212921759665,0.739109574212377,0.09228996932921264,0.08752658502423952
55,0.5391178428491907,0.24817101741193687,0.7327566097345032,0.8452639955955515,0.05758641655498923,0.05458924748823153,0.7335593553231757,0.7142141798696142,0.022247217735115957,0.0673068812227862
56,0.5417418770694172,0.253861090804556,0.7351919648826507,0.8474175991618791,0.04643245083600507,0.04449914432573217,0.7362208001143591,0.6899669465247646,0.026734869413935845,0.0269562056966821
57,0.5391632076207066,0.260609198284306,0.7331288090860846,0.8506918719456218,0.039069669574425606,0.03841257082902354,0.7391843672129232,0.6663327175889784,0.043148249425813766,0.006255788457340449
58,0.5351368788076725,0.25652876444250455,0.7306651138857807,0.8530655952446435,0.04277044843171,0.02702780306491106,0.7404181401694083,0.6435384403164368,0.12091668377421805,0.04287895327905582
59,0.5286545804539576,0.24191859628563564,0.7264726755042907,0.8515753292146565,0.05934642578685837,0.07924589193359176,0.7409201388926131,0.6218487926449776,0.11376449351927796,0.044517657900311744
60,0.5236162600694757,0.2155030875877596,0.7233344870628051,0.8474899848419956,0.08644689782861117,0.13362087305162737,0.7421867328504695,0.6015011774743784,0.023757183815550233,0.06931948618481035
61,0.5168610390877167,0.19417737387520673,0.7180330079738176,0.8473051150688575,0.1142404422227214,0.13084295905223353,0.74798397866024,0.58248059014872,0.024472946682851503,0.03744706986601437
62,0.5082406450073781,0.1750149130848817,0.7115223533264022,0.853059302115708,0.14195978233656292,0.12148389221845315,0.7591279423159419,0.564568400018122,0.09769037601486767,0.04794035986137756
63,0.5007051427159749,0.16280814477723324,0.7053347752735022,0.8638696422325263,0.1597548470218622,0.08991653619305037,0.7724793292174956,0.5474186672622899,0.13550633995986489,0.054291269795811996
64,0.4942643957474327,0.16815028735666834,0.698886468740816,0.8825794899458427,0.16292252719594616,0.052718102951540134,0.7866062850231829,0.530656563914844,0.15327189265493035,0.05715509517328519
65,0.48770006666101917,0.19419256411693533,0.6913933589521755,0.9081734702378479,0.14561624614185203,0.12796754394918058,0.7955833797952668,0.5137766813569525,0.2194728684145365,0.08667206877045801
66,0.48133740554016713,0.23889710276270537,0.685364485191317,0.9397222364188371,0.11350010879542637,0.21990519796025915,0.8004494162245088,0.49635598662307917,0.022023619648826306,0.1301674466189932
67,0.47420520364235613,0.28906155979975234,0.6790654362666272,0.971500915243336,0.08168312279481203,0.23891256657499282,0.807296648857271,0.47833596961466474,0.16889728668067155,0.13137665907265883
68,0.4643825512369299,0.32596105005768694,0.6700457423354652,0.9914640648867317,0.05821572794768822,0.179775275857053,0.8145120554640483,0.4600007784606002,0.2958850180559007,0.12173699627728889
69,0.4603118050062893,0.34167997961718705,0.6661102537601434,0.9999999200289184,0.04990506902531685,0.07808943810575772,0.8185782256453216,0.44184626195508436,0.16687279726777243,0.046204939144057766
70,0.46037838440628565,0.3383793071179033,0.6664219943337995,0.9998769495729796,0.052332905961050204,0.017701093503662634,0.8194825341620816,0.4243298927535855,0.10192430947575373,0.02155084659816439
71,0.46071775165154505,0.3248307643983069,0.6666581614350527,0.9950454439460032,0.06432126100280232,0.0710663792125601,0.8174542122626214,0.4076733249113764,0.007011891141676402,0.053368694130974406
72,0.463448322433614,0.30991716256867735,0.6696622069630298,0.9886053561446008,0.0770720724969263,0.07814788248051793,0.8151862655818494,0.39184198441600027,0.08693169208231641,0.058354266480356014
73,0.4669072914195232,0.3007490025172394,0.6727437153002133,0.9847061170430965,0.08270109274110414,0.04421626654716897,0.8129950413193413,0.3766652916156259,0.06762373119101614,0.02731674288053353
74,0.47121758946865056,0.30000832395001276,0.6767509986743198,0.9838476223238588,0.08079023221354464,0.023335072097487943,0.8103929664935169,0.3618909507001115,0.006838829043941097,0.03362865678814879
75,0.4724663184823743,0.3043240592317078,0.6783569349628568,0.9830137022315539,0.07370968411109718,0.026406270183092464,0.8092082654023838,0.3473729878325857,0.04564630149368499,0.02424807072492708
76,0.46968365272074847,0.30256963603657033,0.6761048454852837,0.9712263568597378,0.06672781233927493,0.06181294791349454,0.810012875528664,0.33329866041443906,0.028960508091150892,0.07212315361021235
77,0.4714186857719954,0.2790649356840406,0.6764789341736741,0.9414955865112349,0.06258327844335211,0.0854977033023528,0.8132990526345465,0.31982800085590707,0.13548122575807775,0.05241775222733005
78,0.48037132679200956,0.24738973910938525,0.6852870223821053,0.8930236389025096,0.061506597688931824,0.165373994869183,0.8196235824163609,0.30716281660762484,0.08449197781752368,0.15870444528210667
79,0.4963070434270341,0.20820104003514064,0.7006870067207868,0.8319284491714394,0.06484798969449967,0.2128721467513066,0.8248761224364465,0.2954651511785193,0.02053166481516794,0.21066061016905427
80,0.5165552804579062,0.16735699608365365,0.7195123586960822,0.7671563553368446,0.07245454215752757,0.23019779759943962,0.8219328110814187,0.2847845094912494,0.006683203691838986,0.2294902236036621
81,0.5397607507224531,0.13452968705499266,0.7404254278464768,0.7082322414972828,0.08140107111470374,0.23512814820196518,0.8102539752539786,0.2751189551238904,0.057109532799363386,0.24666478916440474
82,0.5618935161348281,0.10870210883373065,0.7594945042702721,0.6595636509072206,0.09433377384026378,0.2096490653098151,0.793108322016446,0.26639002597207867,0.1267693849596964,0.2144340564819901
83,0.5785203981611377,0.09474926605044787,0.7732432082369739,0.6258458915024303,0.10603182678143594,0.1592022502155293,0.7724581372724355,0.258481472030194,0.16450504187926868,0.15614631496136355
84,0.5920720611604521,0.09163754777217466,0.7832510253197826,0.6044946703981787,0.10920454337706459,0.09568728988725425,0.7533170222162039,0.2510652037573724,0.023788907898827025,0.10020398956526957
85,0.6024542803545427,0.10127971956977107,0.7907252417403277,0.6017048317986011,0.0959620019977987,0.07909088722777534,0.7377108357793513,0.243769105582576,0.1651899175041904,0.05481690434079198
86,0.6132389796834978,0.1252968757959936,0.7986604563425198,0.6157993145221682,0.0704386222978651,0.1523415840607972,0.7255507891245281,0.2362701614317309,0.012209139358668459,0.04546728518400729
87,0.623670751297595,0.15099929981073695,0.8063500571594031,0.641150572610925,0.04831976862920716,0.1530327263945026,0.7209390725641657,0.22864587567651223,0.19892844389285344,0.0647736122325881
88,0.6292308957024723,0.16490550813315047,0.8106048436556275,0.6685827885418475,0.03742576991323531,0.09242660093838323,0.7228753879122329,0.22099957497799225,0.18510931786146256,0.03424534829165378
89,0.6295682955639557,0.17103809891029115,0.8109978257121185,0.688655014930553,0.03697751940085806,0.0346283765757185,0.7246634284890194,0.21341650233417464,0.008834449809176593,0.011742851659498892
90,0.6258640601351129,0.16823646579043228,0.8081751565179071,0.6936093382829698,0.04471279160421683,0.036663222877009315,0.7276665651592045,0.20606380274364616,0.016606963691704217,0.022662084617085746
91,0.6228437616525406,0.1598571404803277,0.8062499223084727,0.6908421830024251,0.057341435747728216,0.056410569962606724,0.7345852617010131,0.19899899348098038,0.017953820509117265,0.0024820375477822387
92,0.6215924893876178,0.15032579798541174,0.8055300849838429,0.6850195419738383,0.0696459499010489,0.055615709799558745,0.7410376995220515,0.19222027631323477,0.026299264371642848,0.01574264063929319
93,0.6193029275551929,0.1411960448696346,0.8037087642989623,0.6806454353661605,0.07732639784550166,0.045926735375755,0.7448330690126461,0.18565268885928035,0.07549231307967025,0.03348329678968303
94,0.6195053381091876,0.13620335794248348,0.8038259031811845,0.6777472495011115,0.08111644247656859,0.022767170321755254,0.7461827123406638,0.17927984611716247,0.041495902366824815,0.0013612720131147577
95,0.6215254571120907,0.1353045853048186,0.8054752942163552,0.6759987073972593,0.07968156875864897,0.010117811672519031,0.7443420719347728,0.17305729880214882,0.010582387335691196,0.01097463861430809
96,0.6226141884669206,0.13479558965687546,0.8065616628821287,0.6760093283728924,0.07672701310503692,0.011803185798976826,0.7406350879878513,0.1669637410560935,0.02245803421202319,0.0167624660089452
97,0.6212912843556442,0.13454717113377881,0.805671785244598,0.6782774907085252,0.07613828121434155,0.007172877695511596,0.7380933463758724,0.1609873198944651,0.006143147644511277,0.009431120510510562
98,0.6182626782336605,0.1330840642817854,0.8036634202155196,0.6801542749614503,0.07949924454015694,0.016264947600364295,0.7369019513729816,0.15513549462898274,0.008069736011845375,0.026564816060452277
99,0.6128478471026062,0.13095085793599479,0.799761939702776,0.6808611456772096,0.08473734782435725,0.029829766467397385,0.7360302880923265,0.14943982770429298,0.024720362282089695,0.03632475416452015
