Frame,Center of Mass distance,Symmetry,Grounding,Arm fold,Leg fold,Kinetic Energy,Potential energy,Bone length coherence,Torque,Center velocity
1,0.7376246642844986,0.30823841388153034,0.9932193040581053,0.52440358197,0.7111078867612866,0.16828999108790116,0.8674429898949828,0.0,0.005548926605402311,0.2362696429768144
2,0.7189731390844873,0.292579929888072,0.9836270823734283,0.5394951852834307,0.7233702860113496,0.16828999108790116,0.8674429898949828,0.019219422029309277,0.005548926605402311,0.2362696429768144
3,0.7048972620411916,0.27525587138800106,0.9764794626860329,0.5559155509492542,0.7442054660613477,0.17527803900341354,0.8462377638318886,0.04811847668821413,0.12597873400338866,0.1812354808926008
4,0.6840278969905487,0.24550226019058455,0.9648246836287704,0.5702157469044414,0.7664352114974813,0.24918310992460632,0.8122363684178685,0.08299366314144435,0.02231889721775158,0.24014147553278503
5,0.6661284825854802,0.21523673035536908,0.9541419421609344,0.5824272363746271,0.7845114085261615,0.2662881732921557,0.7655702615149809,0.1228347575991071,0.013564503226590538,0.18575007303666996
6,0.650952114146883,0.18443582742271247,0.946135931069943,0.5903024865416738,0.7912542125855545,0.2870002922969612,0.7087695351355764,0.16516265151316342,0.013374952289677028,0.16943015612758663
7,0.636404442249729,0.16352994129370846,0.9361858448000981,0.5919811366305797,0.7836300626712193,0.3071836394893344,0.6433271154957809,0.21127976138201135,0.0691299536991602,0.1622892637428293
8,0.624466034330631,0.14970772176577948,0.9289632669901328,0.5875472305889102,0.7827827833179546,0.2909730916975179,0.5719021667332028,0.26184796074028627,0.10074978259882485,0.16138186551174932
9,0.6290851452447678,0.13520948701957722,0.9354169195427974,0.5810889070045734,0.7859808388869813,0.25980053376690165,0.49966786764219584,0.3159929685210208,0.10321922445333408,0.110419288714794
10,0.6368431200468472,0.12496524747511165,0.9444070582429831,0.5726156708874334,0.7912557413135738,0.19727953738334011,0.43456662311600747,0.37106405116193975,0.1325706262831152,0.028658416337040967
11,0.6491501488223462,0.11619030035766245,0.9583154169851692,0.5668007036518986,0.7953865974756469,0.1386182202633146,0.3851501466629152,0.4243820853234919,0.1473892242353746,0.027614074537168777
12,0.6597319963492355,0.10942014701160355,0.9693560230381729,0.5654600974579496,0.794850616908008,0.09492692611533926,0.35278149973832323,0.4744159467149246,0.09927262077170551,0.07401623069559403
13,0.6698432663224502,0.1072470605858893,0.9783050556711406,0.5673819150663957,0.7902272321396429,0.065434101571582,0.33707396805592676,0.5182547786051637,0.09153804672606493,0.07084057243788834
14,0.6738922348741908,0.10587362406562444,0.9804498251781486,0.5737029967638653,0.7870749860460304,0.04161052924966659,0.3358313884132826,0.554754986853527,0.005923712114221807,0.044954728836984086
15,0.6747288961606669,0.10793325102339994,0.9791199230035678,0.5806745397967288,0.7810815452274874,0.05332195117930756,0.3453988688985812,0.5836954805235558,0.029040365934203106,0.03922213324705385
16,0.6760795686568041,0.1101743043334134,0.9783195636948657,0.5883360803554729,0.777383153735466,0.07652980327543778,0.3643914047701111,0.6054389770157418,0.05769294315239505,0.06592854432822041
17,0.6840756632912721,0.11530753524922997,0.9825534886179454,0.5984350180411141,0.7717923661790322,0.11780442293810395,0.39018754546536144,0.6208918986282488,0.06195160666638104,0.13718713899572021
18,0.6966649072385094,0.1253550337050384,0.9908714222189782,0.6021646123937087,0.771896034980398,0.1579213738824915,0.42089570991830494,0.6315993500357263,0.005939041118988281,0.1609066746813884
19,0.7093487674483604,0.145395708671374,0.9978787976770569,0.5932190691345295,0.7797970372414055,0.20909369798563812,0.45351037578774656,0.6395475363258184,0.0158691418293372,0.2600078136547978
20,0.7247354359906044,0.1684028492385476,0.9916282574565113,0.5642775413199328,0.7949037021220015,0.2596973538822113,0.4845132127357279,0.6469931227484896,0.25131490789848093,0.27922000318330087
21,0.7477493247083778,0.1968564459360656,0.9762811863618223,0.5138437495530103,0.8161905273027666,0.3508135957511402,0.509310257356555,0.656509109352785,0.2277297615434712,0.35666305538222426
22,0.7848210947675992,0.22685816402701153,0.9532134286426766,0.4557862396608653,0.8425638399617864,0.43551513495193656,0.5261655869468416,0.6690790755119127,0.11230420185862633,0.47464853526026285
23,0.8322435017086555,0.2579559546153198,0.9277397569895164,0.40088994506951614,0.8721645331988226,0.481058778047623,0.5353056745560526,0.6850019405521224,0.002469524339541306,0.5673361790009858
24,0.8855769232784293,0.28823014294855054,0.9045849511280398,0.35889654841341084,0.8931664301262399,0.47415337197362273,0.5369927835487522,0.7034682492970511,0.0018495670693858234,0.5763073271219599
25,0.9464462691853694,0.3209742119395502,0.8867497539649002,0.33777781230112164,0.9073557412100608,0.47322260044769915,0.5362267358644075,0.7230977869949079,0.06323578491564655,0.5953492359982783
26,0.9999999940935411,0.3560055433206193,0.879568282222146,0.33933008253137703,0.9136823297096858,0.4240137180617425,0.5368462722754698,0.7424775353898361,0.031821773666805823,0.5633174411706652
27,0.9484424334388011,0.3936203550323585,0.8816719456619428,0.3633745604660408,0.9043132166731379,0.39531780313879744,0.5398650942908019,0.7607222872113792,0.05127475089533819,0.5110599701343037
28,0.8981825273471126,0.43107409683333126,0.8911867912200989,0.4045818826213111,0.8751479638974207,0.37366065074030824,0.5443483419432191,0.7771414011861425,0.08166819168219393,0.4289458362326026
29,0.8496253656286843,0.46567631829147643,0.9073003695681447,0.4556799902876344,0.831194378064974,0.354728869141407,0.5456313051173773,0.7920901412140983,0.1135814351815922,0.4037728127562
30,0.8046751890908599,0.4905920324830243,0.9262260865144433,0.5056368964593027,0.7901171358395519,0.31751584008482725,0.5411097704193001,0.80606756299983,0.054722371824942495,0.3419851697795934
31,0.7626650546920469,0.5098117806050213,0.9479470160313254,0.5468523878614567,0.757008885409287,0.29585020531378836,0.5335025943138894,0.8193720680470125,0.2741405873588511,0.3043906713572442
32,0.7319653589636963,0.5235489071027579,0.9668001928590182,0.57365709857656,0.7305341322191835,0.20621143166754127,0.5270706018951457,0.8316658267295788,0.31048907459345426,0.18522489504382497
33,0.7146542051527486,0.5285876795710357,0.9787983284777165,0.585816575665318,0.7069672174165962,0.1043212077344665,0.5230433679693182,0.8429815125905245,0.2561841923635259,0.07033035638085891
34,0.7115095117678168,0.5270567572686912,0.9818571034792571,0.585519056881904,0.6960615936703856,0.025097858859830503,0.5221172370986155,0.8535028171720669,0.029706378665136923,0.02449152957742794
35,0.7162236355655976,0.5236063201976228,0.9793133633198701,0.5790587171841414,0.6977016961100366,0.048273631897176664,0.5254078813268652,0.8634174209121882,0.029111657016978217,0.07361019976437043
36,0.7203296143413637,0.525195863737278,0.9763343824488011,0.5707549854847129,0.7075810052673368,0.048689382712595014,0.5305265505677741,0.8727942494099015,0.006323064382332154,0.08942043960850761
37,0.7255115016081367,0.5285211865443795,0.9730289710439725,0.5654943108908453,0.7186780017918417,0.05420299577032052,0.5329361307984299,0.8820569849629211,0.005286698706824681,0.1068160403988156
38,0.7308622862664116,0.5310470209392524,0.9696147494612285,0.5629243372062327,0.7262042824520283,0.06206642041428299,0.5321941790970662,0.8911292477373898,0.05521095852534434,0.10565385189481373
39,0.7331286468384322,0.5332723056857193,0.9684516895594503,0.5621744255695242,0.7273499165441412,0.04778137712014193,0.5314911739935583,0.8998124358674278,0.08525361723693561,0.08654809096264254
40,0.7307465535857529,0.5350551593858514,0.9699653600345234,0.5615802668009267,0.7244562439062279,0.01985635008781757,0.5318131551263819,0.9080950082631181,0.005775581221096908,0.02811749770038525
41,0.730038926263226,0.5343594767882784,0.9705311729597119,0.5608091242330075,0.725081912379102,0.027286377745544155,0.5325117855186658,0.9159809999676582,0.00991252000812512,0.02690519364268906
42,0.7306961462102122,0.5353640059933698,0.9703377326434096,0.5595184294717426,0.7261239428326883,0.029743853322346702,0.5336629788068095,0.9233076055955671,0.053870205664174324,0.04739426741643834
43,0.7331170517703048,0.5340688025906236,0.9687950461208928,0.5579759300098945,0.7304426385030875,0.013150611894044732,0.5354265976361448,0.9301731148438561,0.00597605601041963,0.03896415498426639
44,0.7368345868337943,0.5316331652683695,0.9664640903094417,0.5570028744146445,0.7341676524720161,0.021714293368559966,0.5371085428020146,0.9365635106265554,0.006012740331866624,0.047728259889911646
45,0.7405350160921693,0.5295491904641779,0.964411204952673,0.5561647140436781,0.7371608878051752,0.02883980480083426,0.5384572929945702,0.9425362456841059,0.021114261259018757,0.05458467824088908
46,0.7434895760887342,0.5263732271336767,0.963303759141838,0.5564516652472424,0.7366323660792348,0.028951851571953336,0.5392055459351361,0.948063442637737,0.005345659808401327,0.054652443480725045
47,0.7476705043951757,0.5224893642190643,0.961763490623272,0.5568728298364033,0.7339114835361459,0.04207969949389103,0.5398335504863209,0.953066248191027,0.10344281152270798,0.07623781759103902
48,0.7476994125081629,0.5209205711242993,0.9619859469870248,0.5572946305611165,0.7306770450430433,0.006662081317178726,0.5408724872968936,0.9576573949581045,0.0057220400530554405,0.022955715399223257
49,0.7455269958342267,0.5207715076000864,0.963584247600478,0.5573809478684086,0.7252502499059928,0.010786270598537687,0.5416746381110388,0.9618740264771003,0.012334523401239455,0.0024043664644986264
50,0.7445850680115801,0.5242962488108801,0.9644378029961658,0.5553380262094079,0.7230632270717341,0.029577203540280875,0.5415927381025908,0.9657981564116335,0.007437261767622358,0.03783105884805054
51,0.7492706897483296,0.5283262241059375,0.9610719414924922,0.5445755130174108,0.7301963665287732,0.04566496111179452,0.5422969685921777,0.9694983682084931,0.040893329923344775,0.040582886375603956
52,0.7564490302423318,0.5324188202310959,0.9572418232296932,0.5225905574496127,0.7340092614605058,0.07954696419998084,0.5462872785060492,0.9729432800438639,0.14135977095215502,0.07973391163762189
53,0.7736894993013639,0.5321996359848058,0.9484668868813941,0.4892720653505038,0.7486679744298655,0.14293627065098152,0.5539030000659229,0.9756239071253561,0.044664812507957265,0.1381760792360293
54,0.7880548994004442,0.5390967640973292,0.9417762699412583,0.4497169430549532,0.7680508747346092,0.15323687959599788,0.5601090398301302,0.9776445500763142,0.09860346802097122,0.10487564599678456
55,0.7857550217685462,0.553308060173644,0.9429538378667549,0.4175276823713521,0.7823265580713817,0.14334917687932622,0.5599202743224755,0.9791918222113124,0.009333374716659439,0.1317822452642477
56,0.7741129825330676,0.5705205142729074,0.9488295874744634,0.39686766644454324,0.7788914204737903,0.13250666322246282,0.5541229177235434,0.9803351324166866,0.010715837984939698,0.10757873634668555
57,0.7590108898280081,0.5865827908019302,0.9579720604237335,0.39058409247414155,0.7645954128060284,0.12422438990721087,0.5431678379833621,0.9813216187258406,0.08009900536582688,0.1016265951211894
58,0.7339046142585026,0.6055018453492049,0.9734303597003023,0.3943141882647753,0.7440118638795749,0.16449852592513983,0.5305126141441537,0.9823128424129042,0.006489834038713247,0.17681231772187267
59,0.7107205718532136,0.6220532444590903,0.9880471936009511,0.4011450529079588,0.7282936190472387,0.16180567564146228,0.5149871261436665,0.9839320026702051,0.09859011516176923,0.1987409188802075
60,0.69215721792002,0.6328787548568143,0.9995399663933127,0.4077252767247478,0.718079257582892,0.13023774897103654,0.4983683628996871,0.9859296835177326,0.18414349900653798,0.17829827195779765
61,0.6816797376431699,0.637876834793629,0.9931177478920492,0.4084267217713431,0.7121078132256502,0.06947011459395304,0.48808720276600565,0.9880758797308075,0.1942579686826147,0.08292951170508533
62,0.6806746732952484,0.6392067072133198,0.9924745588403399,0.4033468993142499,0.7065700755807092,0.017337719467767406,0.48436168870706325,0.9901284311436925,0.004816762041295681,0.029290432208612983
63,0.6840970856683134,0.6391858988894008,0.9951101831499662,0.39489554358457274,0.7083476997882542,0.024695486442382838,0.4820335743950569,0.9922017112721618,0.009831827304600534,0.024034516057753804
64,0.690238904407257,0.6330000030058818,0.999561728428897,0.38807285882868797,0.7107266590844059,0.04160934146945126,0.47881373009301564,0.9942419558157258,0.015956422068776448,0.07315751631139848
65,0.698479001946237,0.6222484822711135,0.9955018997904861,0.3848220475424348,0.7065594018552734,0.062167297439286645,0.4785555196641435,0.9961141337120027,0.047243991892533005,0.11115920079120681
66,0.7016557957554564,0.614471312899087,0.9946580164106084,0.3844985939526882,0.6975604491756059,0.051363058965155396,0.48420412453011347,0.9975042377349176,0.05604130012865438,0.10419321981928155
67,0.6995556271300042,0.6083453704805487,0.996548895502476,0.38783928295325054,0.6896904659216458,0.03485711723985643,0.49230842610034264,0.998625501994983,0.014017378985550603,0.04958511631182207
68,0.6992837887836983,0.600405255450567,0.9972235186055799,0.39556990536600994,0.687984240494875,0.03807521949730071,0.49887589831802187,0.9993892999479036,0.030795366648859478,0.04366335521611622
69,0.6962948172695685,0.5935582184561239,0.9998035288242698,0.40575070999941676,0.6822404234902154,0.04363086302792904,0.5054283182720681,0.9998488115717254,0.005521127290163193,0.05931643237033833
70,0.6968108284917793,0.588347840493619,0.9998228728559034,0.40975726830228987,0.6741286781936947,0.049156761481200115,0.5140135722888487,0.9999558060054462,0.045770323192760885,0.06578371788098167
71,0.6969539262726631,0.585348739981455,0.9995641464328479,0.4088426442801948,0.6734608476265291,0.025525457490448687,0.5212252713574985,0.9999702598232013,0.009324168290756035,0.048560198626851785
72,0.6955916292495024,0.5855158615624527,0.9987009190213433,0.4061760724337925,0.6741461735485255,0.03028742115331435,0.5251660876097901,0.9999095159254049,0.03435689779102114,0.03586301577266155
73,0.6993290187329269,0.5826713540909216,0.998933047400906,0.40484133032349195,0.6717711237381961,0.0181326577305816,0.5285440350937439,0.9998143615349202,0.025099192311641698,0.027804660196596408
74,0.7019352644401841,0.579397189034307,0.9978473636256556,0.4066584948112351,0.6629740135726153,0.016971030117589003,0.5305712540314115,0.9996207760623766,0.0048678317416243995,0.03523662777975039
75,0.6979423615301724,0.5771016453172366,0.9982221542384926,0.41108345196490076,0.6542248391612235,0.02588593066735912,0.5335706768413924,0.9992304283517536,0.05652051068153063,0.03135698915781958
76,0.6884119621989698,0.5791677489111823,0.991442071152075,0.41348310137788874,0.6535420807016146,0.06431126217661363,0.5405457232729038,0.998846376757134,0.4557220866058696,0.0487323622652906
77,0.7151454312883256,0.5474483593192682,0.9909705603810836,0.4121685340106877,0.6509583633730255,0.25213929846246547,0.5464890912946688,0.9983675533374102,0.12111850473522183,0.3470627760225717
78,0.7417442572706633,0.5164463263253728,0.9726735244627691,0.3995665450516468,0.6642400772590541,0.29574245776729274,0.5496682731942951,0.9978660947217983,0.16524078253333738,0.4266760613077378
79,0.7739084891031937,0.47996130395865605,0.954008951943477,0.37780410815207827,0.6817414217784437,0.36071979865299897,0.5518550386885934,0.9969776408504355,0.02739426950648322,0.4704360792482053
80,0.7988249108075407,0.44086159184289836,0.9431714582225924,0.35031966342040866,0.6884627336543626,0.3817363411513044,0.5465343814427425,0.9955659107098196,0.09466665594019837,0.5045490811813252
81,0.8188659538603945,0.4082698166408426,0.937353740709778,0.3244621316104181,0.6962608445612932,0.35205458256485295,0.5304087541164944,0.9938075194737146,0.11750686731767328,0.4407803649348067
82,0.8330411581706278,0.38016082308650456,0.9354725336337338,0.30560719859511926,0.6959097445907452,0.32335518886078957,0.508176803210236,0.9918526084872202,0.12929819317098548,0.45219580650499647
83,0.8357026034917238,0.35350940761212896,0.938739256975302,0.30018244224241974,0.6789146582995955,0.29576891125317445,0.48622749391018,0.9896371338608271,0.048578276938725413,0.4468208685995457
84,0.8318654099009596,0.3303212797158006,0.945625732235691,0.30257622728843364,0.6475890734006912,0.2948211663449812,0.46953411195374783,0.9868321203485793,0.06667436278346443,0.4504943680436508
85,0.8299402336950107,0.30479648549022675,0.9508534567837817,0.30971138120513675,0.6106200164733526,0.29042446769849073,0.45813749909124485,0.9832491988476594,0.11822343599839825,0.48876452333112586
86,0.8277133142106703,0.2835600710106192,0.955967535146042,0.3137428602983677,0.5840266043379113,0.24256508458657433,0.45058962188594875,0.9789683635254326,0.28194032078318365,0.41510441038317747
87,0.8324380450738025,0.2677087858463492,0.9561126153832739,0.3197209228559208,0.5713030180097922,0.1315066286802854,0.45080832122574455,0.9741115388620609,0.127286020932664,0.2659290935777866
88,0.8330842793937365,0.2616280171910721,0.9556797926755427,0.32903163259471724,0.5689706297031383,0.0902512825996078,0.46529195768112186,0.9686191901846992,0.18426063088157396,0.10567088093778285
89,0.8260999584684228,0.26277666031847374,0.9579793144355927,0.340659344202106,0.556829445121252,0.1653516356355265,0.4966770704754615,0.9621649627622516,0.055610538910884286,0.12858926306401774
90,0.8165367299024933,0.2660256899062288,0.96353346951745,0.3517120944064702,0.5286008682757187,0.20632610156576187,0.5412516543729662,0.9543430577477604,0.07758230157369687,0.1100530463328874
91,0.8044597791696455,0.26899735400892627,0.9708527674855632,0.35978727902764507,0.49190124019899945,0.24878661926191564,0.5942518968788917,0.945031543514598,0.004786445860163525,0.17907904781287243
92,0.7927990988058027,0.27486616231292793,0.9776473585957127,0.3619578490811392,0.4576742603667938,0.2635285173801061,0.6522358679079001,0.934508831659979,0.006891765513889704,0.24442576730459087
93,0.7831791079474606,0.2870071710305222,0.9828484851003108,0.3600622749135427,0.4275461571970089,0.2727585065263271,0.7113131427422899,0.9230116351920687,0.006924320856295989,0.24810062345764786
94,0.7729526676350468,0.29574599965412157,0.9873508084622628,0.3555167051724587,0.397251300090374,0.2762410767244456,0.7665452485338732,0.9108215662221444,0.08269479921478971,0.3151438317942213
95,0.7646504448474644,0.30883283439776743,0.9918458778123557,0.354465371808669,0.3710625932543285,0.24304524458631124,0.8160120090475491,0.8981307697282164,0.041991817565749656,0.2578240334089685
96,0.7545214576164777,0.3169868791916067,0.9974677370049102,0.3581792040977593,0.34631718121113686,0.22060598139979634,0.8590074332464307,0.8850964997871436,0.04463928999650066,0.22604132731217366
97,0.7431692885840524,0.32035877499010734,0.9951077651460154,0.3666191898019714,0.31997966737656275,0.2024056657886666,0.8934174267993799,0.8718331457097953,0.035577455667782955,0.20879249943214664
98,0.726923193506371,0.32379482710778806,0.984659570061693,0.37620209033545127,0.29150367010535744,0.19419326777227233,0.9201108660249119,0.8584187078840259,0.0428529154543605,0.23501136740522335
99,0.7123997483969762,0.3238745071298759,0.9739816646017655,0.38529344448704606,0.2624552234738121,0.18129571341136813,0.9404218438125123,0.8448365565090664,0.07544985579250052,0.2113613592889781
100,0.6972708167305329,0.32368659075172174,0.9629773286080783,0.3928114157289062,0.23567605211880693,0.1593846374235023,0.9548217116729959,0.8311326952542736,0.10848543379270051,0.185673368743237
