Frame,Center of Mass distance,Symmetry,Grounding,Arm fold,Leg fold,Kinetic Energy,Potential energy,Bone length coherence,Torque,Center velocity
1,0.6977259333559352,0.38793908101908475,0.914257137611194,0.5426109244761691,0.8353841456033265,0.0839966529343704,0.6692844834931743,0.4771191975666763,0.22099364283759354,0.03214168521326532
2,0.689656571266983,0.3888741727484583,0.9099338870472681,0.5771476909449581,0.834022114537282,0.0839966529343704,0.6692844834931743,0.4863138383274263,0.22099364283759354,0.03214168521326532
3,0.6809372030333053,0.3855256292991354,0.9045457516075969,0.6217782504396181,0.8300206444801873,0.1682895407706221,0.6657883521228615,0.4913487209674121,0.14872344232051563,0.1267866849176997
4,0.6708741015112717,0.3798504945720966,0.8979948893057326,0.6544989228572984,0.8290182497406472,0.23126729931323817,0.6561164760411682,0.49853084452845975,0.1579368714285803,0.18738543920071143
5,0.6575583396208718,0.37532274033050306,0.8892585100740522,0.6572976152056261,0.8282165203214994,0.2976260378145381,0.6367256804931928,0.5108705989926772,0.12092984049261266,0.2515982423347838
6,0.6378717541249573,0.3775767917971056,0.876160198562872,0.6285604383879516,0.8161969097080762,0.35062096754430305,0.6102076488562153,0.5270210900275759,0.26528772552254376,0.31282817838699
7,0.6179796140937738,0.3901077345853168,0.8624930382932823,0.579653043766203,0.7978014944418799,0.30421781755529775,0.5814673739411901,0.5477756157835393,0.28145722587053995,0.2408712414692098
8,0.6045598369829931,0.4084297171908817,0.852794166962369,0.5244466796671965,0.7869386974945181,0.25454839681674435,0.5530989093528522,0.5734367193574873,0.08051622267543256,0.180503344298025
9,0.5967692694062467,0.42910745519451093,0.8468679005972397,0.4749227837321111,0.7801699060041969,0.23041965981271573,0.5271762799916443,0.6026771451646994,0.1285807480463199,0.14359737947835663
10,0.5920925469178798,0.4483829757650752,0.8427619502590287,0.4413132891516273,0.7657423932651418,0.23828770650104134,0.5044744986575652,0.6339636266642243,0.24750496134674216,0.1627696500406831
11,0.5892918321133692,0.4667008482274947,0.8391747899884855,0.4269488587066814,0.7473293090716857,0.2802876491026512,0.4842381429493015,0.6652224865173173,0.06160752274252351,0.22871442160478936
12,0.587963452320014,0.4810064874300563,0.8361883340068258,0.43732165738059753,0.7267420815357852,0.29992088964006697,0.4660707269932701,0.695128055672745,0.12300449894462044,0.2824190060406338
13,0.5894122571381207,0.48976699648297367,0.8342110157225892,0.4753464023376642,0.7003683823419652,0.3454944503380961,0.44912970088245613,0.7226350411333057,0.1693039008653994,0.33009055757100614
14,0.5947041668656793,0.49101153736373365,0.8345170563546132,0.5407069619222397,0.6733243687478752,0.4057455492075328,0.43160315654430426,0.7471776439313539,0.09689696122895798,0.36704139316461926
15,0.602616626124611,0.4806498767975728,0.8376730292662815,0.6200056870579197,0.6493206443683158,0.4478239822664994,0.41002119059854203,0.7710286918993386,0.3521137396517427,0.4072121048994465
16,0.6148711631628803,0.45546413495831356,0.8465493452925287,0.672236239483288,0.6340306130998146,0.36905196315102506,0.38598414214731414,0.7954268165594843,0.9139472924436313,0.3393587190761844
17,0.6196385505179192,0.4463664670412394,0.8496700495811746,0.6698612017468591,0.6158254419227038,0.15540610556134762,0.3707368478818893,0.8175448114464784,0.1045127389979428,0.13064103071787356
18,0.6286500515100772,0.44855866444271714,0.8552390789260222,0.6501690231165773,0.6104623341990776,0.14569419493082594,0.3628909439278066,0.838272763302623,0.08769686921252323,0.11549855475927615
19,0.644082865014982,0.44568220904431927,0.867047241453123,0.6324398426567461,0.6230623491498597,0.1992636532579971,0.3563148456494258,0.8585155793020428,0.07493009905872518,0.1911298277113362
20,0.6607872588542338,0.4360671827258592,0.8795164062374973,0.6274955173467589,0.6404194384475156,0.22360718559325538,0.35533770279493737,0.8774424244070493,0.04721452887094172,0.18347890857851656
21,0.6693094630982583,0.4271688892691552,0.8855689570269936,0.6288013082494105,0.6459341210489138,0.20654279126629532,0.3604759323508222,0.893893009389463,0.2323501906981736,0.18031364405291164
22,0.6714450761526727,0.41959925171487894,0.8858761353565369,0.6315094112810368,0.6370329997968285,0.14544323930025463,0.3691472937428922,0.907713669835351,0.3444413079935652,0.14902193461628674
23,0.6689381383412134,0.41670847240048253,0.8817337786977872,0.6331506128034113,0.6242253846293274,0.06593315398762475,0.37765780564680995,0.9192651098545607,0.022754797541053355,0.08499676264803253
24,0.6682340536573513,0.41556120068920605,0.8791762346799702,0.6323472707915818,0.6181387107242189,0.07941868014601625,0.3817815089750698,0.9296029358607161,0.3371036879344313,0.08766502385400196
25,0.6740615915060966,0.41395327910665886,0.8815642617677786,0.629472983765881,0.6133825888947165,0.1711407488248105,0.37893759288814877,0.9391781435585558,0.015460155844076777,0.18241180883609917
26,0.6772478264047745,0.41937457265282035,0.8835017606389284,0.6284989344333552,0.6242729301110483,0.17832792576121376,0.3732037733591467,0.9478932471348324,0.06376345346670985,0.19285322242023858
27,0.6816376024311824,0.42043935200569693,0.8890161805029666,0.627741699327986,0.6453580869601471,0.205558295796026,0.36696366027562777,0.9565579461184691,0.0324048444688437,0.21121407080970686
28,0.6839815255947304,0.42251663627978336,0.8935237380646172,0.6244687579156633,0.6661649329750345,0.23870876996651685,0.3604088156986845,0.9647559850980619,0.01694280365538941,0.2680107940226042
29,0.6797063108249948,0.4272804927606838,0.8932211105251447,0.6166440715450658,0.6764032474939169,0.2579677539883255,0.3556450965690237,0.9723040890171816,0.020109319611956222,0.270778526391599
30,0.6743740858231883,0.42927171432006384,0.8911971466427149,0.6019880696659382,0.6815226281814022,0.25632982647881625,0.3517518734742532,0.9791251251620872,0.03255919979987806,0.2616093496019789
31,0.6679553819319509,0.42861339360119505,0.8890503114284728,0.5845742638745569,0.6927896932414841,0.2543487661454994,0.34876998264644476,0.9852417839938832,0.1429617360642102,0.25593661371070797
32,0.6637834391921329,0.4253478928733093,0.8886327764397979,0.5658722898959646,0.7033405123089256,0.21946433661873363,0.3480356857746651,0.990462000090048,0.12271572848391245,0.23928183219601493
33,0.6644022358438675,0.41831705453723445,0.8904758464170515,0.5500680200664719,0.7115873759970449,0.18990373015487014,0.3503356478950377,0.9945085173677556,0.036272129593108396,0.22148771939177017
34,0.6741400852296264,0.40718556709616904,0.8974237651522875,0.5373638154895403,0.7248063782449448,0.1719443354586478,0.355319622402113,0.9975437180882779,0.014197805021101394,0.1709358080638637
35,0.6907972455856177,0.3937015699176321,0.9077176522844973,0.524588250538599,0.73581173097265,0.17546153229483338,0.363127466586455,0.9993906326331444,0.018560627505872906,0.15213257936309887
36,0.7135506162977248,0.37907099275492684,0.920794347542855,0.5127276910914332,0.7491979251699109,0.19543150776569304,0.3743520840462644,0.9999788815038159,0.06314671418902142,0.17743730451895784
37,0.7409824296502825,0.36541284499641696,0.9345195303858057,0.5004842027684719,0.7599961257681732,0.22640897719665815,0.38955217913436596,0.9990833890782005,0.04485393403640253,0.1887469196881925
38,0.7685999894326153,0.3546043496833546,0.9470592324162247,0.48804628657533256,0.7681591152044072,0.2596763109981006,0.40934223904911826,0.9967326968286473,0.08867256459811104,0.2578106361599009
39,0.8010591087304606,0.3411421062763599,0.960551187268222,0.47638793600153134,0.7735253645578546,0.29423072601143646,0.43267662619405495,0.9926901033697076,0.09222177906684535,0.27543937832389664
40,0.8313116087203694,0.32924807392228317,0.9710600992311144,0.46740466790364105,0.7738319259404141,0.3428772764116465,0.45972918070547586,0.9870724993717267,0.032293085393366235,0.35871591695923843
41,0.8577082327066103,0.32142630963667634,0.9794722346704998,0.4599910471499624,0.7714312844984794,0.37051298380244296,0.49040065640197467,0.9802150166710674,0.019994956542793853,0.348221861194116
42,0.8743252893733647,0.31509683585442666,0.9843506816226353,0.4549094892199282,0.76814126668241,0.3753207117748259,0.5216652367413281,0.9724197743976503,0.04558278697063784,0.3772205935788464
43,0.8773684227975479,0.3099718375652394,0.9861505190942472,0.45133275296887876,0.7647138808086008,0.37288963430169825,0.5524958958300868,0.9639153056879901,0.11331493548883693,0.36974473205929337
44,0.8668277650516959,0.30574317453120364,0.9845201985526407,0.4516093814825429,0.7594131908584938,0.3456426101925425,0.5830128948624382,0.9548427839023503,0.20565926027482923,0.3308263190762831
45,0.8496303581173077,0.30185804021871243,0.9798863565666232,0.4589176074553934,0.7457562901048046,0.2916232447850137,0.6120915403738707,0.9453769166726954,0.1713781526716485,0.24465370289146454
46,0.8322739987264877,0.297689109075333,0.9740442798177386,0.47279070691834396,0.7311141045380907,0.24510926666839727,0.6375582258461204,0.935789613692674,0.2381293923883319,0.2019800097757929
47,0.8208865217983198,0.2907731526696971,0.9705560992311593,0.49099001925632857,0.7221576209619136,0.18405284398069144,0.657866103820663,0.9262763040629206,0.17741145604984312,0.0968735734957427
48,0.8109148979327511,0.28688656510272004,0.9673364152585526,0.5070466916453163,0.7169725125337182,0.1369198869907881,0.6740128954146155,0.916955766911426,0.16308323247037437,0.08852757789440133
49,0.8076975989421177,0.28192085712161946,0.9654762798185476,0.518995850340835,0.7145762708561899,0.08471231860310363,0.6880814238151151,0.9074357875665059,0.09288091990611107,0.04187148528026787
50,0.8136873513088819,0.27415866741272577,0.9662499141299881,0.525710859724264,0.7093616159239672,0.10413275318645358,0.7009000073165472,0.8972586432297939,0.033615253943868974,0.11274729473329274
51,0.8184642704061184,0.27141472316932513,0.9675434762066126,0.530701299371485,0.7126398657837415,0.10479393763739138,0.7125514384407551,0.8862906833794311,0.014118519660271526,0.09699191195835571
52,0.8315734357476384,0.26791508850358914,0.9727086229329884,0.533250533291689,0.7176994022866349,0.12883587951406006,0.7210386661269517,0.874781592310008,0.09815341201469477,0.1183440318114449
53,0.8435570352944424,0.2693655371171857,0.976645056341194,0.5325297747885962,0.7279482751851031,0.10909570260851698,0.7246250825114104,0.863222221652984,0.03398957547937635,0.05049497704204413
54,0.8540991585404352,0.27394936322508134,0.9796986364763468,0.5305841442946981,0.7421292009961766,0.11839461857785896,0.7245169842946809,0.8518996529320189,0.027707829703651096,0.08793743921433454
55,0.8631167296766215,0.27934345952188505,0.9815883520517904,0.5283725503350535,0.7506992756581449,0.13895161632704736,0.7217285428495086,0.8409627167546377,0.009762164767831132,0.12097709672063504
56,0.8665617833319854,0.2852872598717899,0.9813687764310434,0.5257486820586939,0.7471432545709953,0.1467214797109579,0.7175104226530438,0.8304100098262892,0.02379495175609964,0.12319041504954194
57,0.865363119558811,0.291431715940584,0.9797498328646046,0.5249638055570909,0.7428041936334415,0.14582323691742693,0.7131483097570044,0.82021278446693,0.08237729778868551,0.1201175445738504
58,0.8606792486442506,0.29734510008229414,0.9774232414427023,0.5261179407498612,0.7387954088345655,0.12286706168728993,0.7087379576501759,0.8104767434422109,0.09239153151030706,0.09716568404982398
59,0.8559494547565,0.3010793485096771,0.9750318012623391,0.5289576446091258,0.7339279678618148,0.10612824673611997,0.705213183189919,0.8010691189900279,0.08888815813610142,0.09309625276886178
60,0.8531622588823627,0.30249711021953124,0.973616505551412,0.5338327319206906,0.7309934387706704,0.09114331339577011,0.704369177566302,0.7918070828630995,0.012751534356689288,0.0829584639742876
61,0.8473851025136195,0.3043871600501237,0.9714218870414638,0.542752361040353,0.7250317184214583,0.09716145795743182,0.7079814645963428,0.7824955394094756,0.155679781730652,0.07701512708493936
62,0.8369030564059552,0.3072991286808367,0.9675286861388966,0.555274719763445,0.7183850203987993,0.14545884003510184,0.718968571372285,0.7730116441451792,0.06132316751730502,0.10298373364608951
63,0.8235342168588089,0.31270330394220414,0.962484135349304,0.5696059021423555,0.7165214873509234,0.17679631245167904,0.7365463072220717,0.7635169671779711,0.08687103538517757,0.15019170020492412
64,0.8119287194518041,0.31756282342139835,0.9577638283520062,0.5802793236359785,0.7196337134897073,0.16205532621919022,0.7552865710819243,0.7540361714473776,0.11951234967281918,0.15240826284565095
65,0.8022047979584137,0.32281179235589685,0.9544633678557033,0.5788078509508949,0.7263114145930228,0.1467214630974108,0.7699581703709678,0.7446357604627976,0.09472693735231526,0.132667890004433
66,0.7979073784818875,0.3251373386455104,0.9532699231605588,0.5641733904046512,0.7283692051877334,0.1298173118394999,0.7777319813267509,0.7353631996486553,0.010079339042779628,0.07575234427936793
67,0.7980574921225926,0.32368586806191835,0.952966157923567,0.5440560633796037,0.72183019229086,0.12601791785313235,0.7781108841553349,0.7262108404168544,0.024355246944118742,0.05437614861014997
68,0.8048232230335924,0.3166316123886051,0.9550754491197545,0.5229337628456818,0.7170798593666262,0.13985025870015755,0.7728889345391056,0.7170455612363364,0.15634309751150738,0.12661070890051143
69,0.8213471644679473,0.30031339146603686,0.9605546003607736,0.5104569841307839,0.7157259351285958,0.1997530880430702,0.7663352496392073,0.7074303937563008,0.12287234969064449,0.22982855774325672
70,0.8479256857856091,0.2768446635283603,0.9683603430236917,0.5108820770868496,0.715050732408278,0.2717899701048012,0.7617786105356641,0.6969598326295461,0.03170498349535161,0.25206023898207713
71,0.8716240772590224,0.2529775730120852,0.973130708711731,0.5208795718406601,0.7029090859372618,0.2689500290278116,0.7602048100495474,0.6861894584992695,0.13271902901338326,0.298845690676278
72,0.8959546062694052,0.23444383524986176,0.97873045588953,0.5342836040046454,0.6984773750799619,0.22559130767211857,0.7598512751054407,0.6755536793327425,0.04956663389789919,0.23486112383061045
73,0.921276498859774,0.21985608851089078,0.9839991330899374,0.5422020733376626,0.7061627836924007,0.20070984874372286,0.7591388209797466,0.6651819299320485,0.165239069005299,0.16912229222971006
74,0.9402143635841891,0.210094795947669,0.9872654626607341,0.546130531956866,0.7124603553404336,0.15542380065431433,0.7597802299139591,0.6549687160640429,0.09541085463950745,0.15061634623522058
75,0.9532890105544709,0.20281265973574233,0.9893246951661832,0.5499865428175328,0.7129913658539038,0.12970101781096421,0.7630384292670045,0.6448488453007514,0.1471296974708374,0.13734961199481963
76,0.9577100471987591,0.19969877985158388,0.9896842075815003,0.5569503544603821,0.7056600306026007,0.08899677104666717,0.7685921354348823,0.6347332635418603,0.040427791017902295,0.09868509102043894
77,0.9567119595240257,0.19955039767071694,0.9892746364754416,0.5683210958203745,0.6967114382801314,0.08801741414008146,0.7748394042395087,0.6246634259077277,0.08195839120234823,0.12042979118399738
78,0.9518172787680338,0.20535216589243044,0.9883769931346694,0.5793964801913718,0.6845651901885086,0.07188509823785542,0.7787151765832702,0.6147911916026287,0.30431599816717264,0.0757106550738132
79,0.9401888489231512,0.21897436228264844,0.9852506003584396,0.5840194314927437,0.6695609699114842,0.16012167071996228,0.7770248392961833,0.6052317158913981,0.2821993707669192,0.1152429084803647
80,0.9251786020548274,0.23842757692940597,0.98101495250331,0.5791749871407676,0.6596561289763386,0.256854814696902,0.7645410259947424,0.5963994070886044,0.43302695261232194,0.21509909979703473
81,0.9028702583000978,0.2627329568949825,0.9757610653706251,0.5667533275267486,0.6548241449514282,0.39471475856439486,0.735754782638769,0.5887581360670247,0.3408832692102932,0.3762703842712906
82,0.8715300075867111,0.2877825127256338,0.9675741940395673,0.5504416710393113,0.6565515013879848,0.5060541091717831,0.689074419022612,0.5827772204320761,0.20772616328600726,0.5040243454300359
83,0.833652266872232,0.31245915236335836,0.9557523791422634,0.534102668843281,0.6629283051291865,0.5666832264402699,0.62459121702514,0.5788737366548462,0.0575487602901207,0.5287719495346442
84,0.7974603470030343,0.3302500858598659,0.9414378689856033,0.522741564565577,0.6671034920967941,0.607377127311995,0.5442691412435496,0.5771953935701344,0.05565443657154183,0.5786741132171632
85,0.7635082696966574,0.33433856653587163,0.9257888396417092,0.5156869319077513,0.661923222080511,0.615150187433008,0.45300401406961543,0.5776794227743796,0.06186222176889795,0.5553298487286368
86,0.7306525592563522,0.3282749812223614,0.90829332722801,0.5155080298566904,0.6514177477392681,0.6222760445552566,0.3591939424382544,0.5798993931557057,0.3114943745019023,0.5741164486515624
87,0.7024456283887233,0.3096612719276673,0.8933576342271633,0.5195615149879381,0.6373284376041102,0.5702432175176656,0.27167029724029623,0.583380871148703,0.18346474260828757,0.4954665477846161
88,0.6757594489596135,0.2830060533271401,0.8786813362601505,0.5265092607613349,0.622931683598525,0.5523991882323683,0.19590581300485216,0.5874457472060326,0.1915765367602892,0.4824194666182573
89,0.6547397194108074,0.25199866992884706,0.867001733552449,0.5328529046548024,0.6142400257925894,0.5196731590861632,0.1353139273918998,0.5915747172300359,0.263618645305896,0.4717731504580237
90,0.6409497133145021,0.22527866465116356,0.8589343204606615,0.5417983765277694,0.5938322542574408,0.47271654775175775,0.08941626980739276,0.5952944533449628,0.024732555045333247,0.46799309685736695
91,0.6255449189878218,0.19847744878781462,0.8491558103035712,0.5542053445639513,0.5983672121419096,0.427476234956819,0.05605019793941815,0.5987594517293968,0.14631243832574575,0.3738041180642107
92,0.6162094526042284,0.17095171595342287,0.8438700676404124,0.5672982171166072,0.6156861310589012,0.35654451633172174,0.03315769061505907,0.602215059684114,0.20512637322110874,0.2960507936384091
93,0.6165529006919905,0.14189970682229708,0.8456312233964535,0.5720357177207721,0.6367221085849731,0.2889498154592225,0.021118584336046943,0.6058066294032932,0.14392083963282415,0.2031043099097908
94,0.626887935966192,0.10669601225161486,0.8557897245241641,0.5565023696565358,0.6624178839256636,0.3376909660785413,0.021758661322285974,0.6096697002630322,0.19009510176021227,0.244171334927219
95,0.6427631423506729,0.07205224508453523,0.8693431150420706,0.5204072037817713,0.69285073267761,0.4065819987513459,0.0359231424462247,0.6137999113392283,0.176438442760457,0.287012808681671
96,0.6605922573658365,0.04865602620847846,0.8833970924673806,0.4724249408497631,0.7233286807109844,0.47351436226539173,0.06413490480952111,0.6180065685314454,0.027214776283935257,0.36555133361988723
97,0.6821674283100516,0.03781623168343262,0.8978048938204207,0.424012426804408,0.7485237934512917,0.4880870791554072,0.10371629122917404,0.6218555719905982,0.12867728358850267,0.39743977688221827
98,0.7009169336390317,0.0363313532137411,0.9089839096207221,0.4661549936112389,0.7695174346154674,0.4562592360191303,0.1520886824604562,0.6250133052169565,0.03978618192561406,0.36825094048115964
99,0.7198767903103824,0.03720028636136063,0.919100315940307,0.5029052897674131,0.7794809855684366,0.44251324814684123,0.20846198561639095,0.6269456687957143,0.1918079206332028,0.3676190130422054
100,0.7323671880693501,0.03948865638699607,0.9252211285808126,0.520651026655508,0.7775393744710257,0.39852511154828624,0.2713274404753397,0.6272865129761585,0.06557078804888049,0.3262551632503155
101,0.7358832875711088,0.03958119659517767,0.9254259141338405,0.52026520505262,0.7710117077814841,0.38290291663551107,0.3394779020545086,0.625649825667546,0.04218342878195087,0.2949902898595795
