Frame,Center of Mass distance,Symmetry,Grounding,Arm fold,Leg fold,Kinetic Energy,Potential energy,Bone length coherence,Torque,Center velocity
1,0.5063817588689342,0.8242076295413544,0.8257378787152725,0.03470366054390763,0.8577157796032758,0.06737434151353991,0.5224828331099077,0.9999825892072439,0.0007905607327751665,0.06815430191698281
2,0.4908292121279587,0.842416232748155,0.8124114444292515,0.04115526243910042,0.8478047373058584,0.06737434151353991,0.5224828331099077,0.9986689241143395,0.0007905607327751665,0.06815430191698281
3,0.4742896327165003,0.8649957357674162,0.7972702638773699,0.047953003103520395,0.8392770663491359,0.073069644402477,0.5294180828504096,0.9984855536226128,0.009255831082584898,0.0888050644217416
4,0.4590660230716786,0.8854591477484999,0.7830302597638522,0.05566207628899118,0.8311178618848781,0.06823366797280729,0.5354552896577263,0.9989394890522856,0.02731484230833747,0.07701098269790838
5,0.4458781074087294,0.9011137263326015,0.7703376588077678,0.06207432683349498,0.8222366180059276,0.050145917409513366,0.5404354588025208,0.9992393581315393,0.016721078337144056,0.047651128171978537
6,0.43394278039622114,0.9095545798191218,0.7587994135251885,0.06801001023074059,0.8102679014851347,0.040263404985773625,0.5448376875262056,0.9989813918819924,0.005063703819526421,0.007485167714863836
7,0.41901179128499616,0.9133238341810254,0.7438476747786206,0.0778040795365419,0.7851936666293171,0.060774377446458895,0.5495505129889975,0.9969305319028576,0.027530419401927797,0.05219090226848674
8,0.40291217250773875,0.9036765213742617,0.7264243401421531,0.09341788872445995,0.7444624461537951,0.109466366114273,0.5546938295032088,0.9918177206734214,0.07864605614585739,0.164294267169679
9,0.3755873738748062,0.8953267825660889,0.6948282797903167,0.12205205441476273,0.6900220696289107,0.1721862413262009,0.5635309842964761,0.9817067397358432,0.017374704788432963,0.16277207341094949
10,0.35461360147515064,0.8767472653492797,0.6654063739891973,0.17219847432486562,0.6272683601537696,0.21559777351716747,0.5758755906489127,0.9664115685139025,0.02569085666891108,0.21049854341149352
11,0.3391661600062769,0.849116725149717,0.646603832190671,0.2099115385701278,0.5886558287132455,0.1974978239478594,0.5870495261384623,0.9474970028373974,0.025732629276740047,0.22186860492007887
12,0.37561330358600786,0.8007712519625443,0.688516503753433,0.19355264151186624,0.60641183846667,0.1865564470542995,0.5782191287419303,0.9333252963743965,0.16908620636755253,0.20880955063316037
13,0.4334227757682853,0.7693914268478301,0.7517316407512032,0.1310175911594795,0.6584747775540526,0.2940199624226925,0.5398306074554827,0.9281148813508304,0.07197861689850776,0.13142333643637893
14,0.5062983840075722,0.7372873979233637,0.8211682590936159,0.04791209082264777,0.7282299523262865,0.3521081246465662,0.486241925992838,0.9312267339637453,0.10795258763570599,0.17712983153628883
15,0.5718461619734058,0.6915396642713424,0.8733479683107672,0.0,0.7815173754461336,0.2825817171596602,0.4286261248523664,0.9393267946876528,0.15390937669871493,0.17492073840148006
16,0.6093924985252392,0.638229643638528,0.8944893196870539,0.021225985528947555,0.7654133966403354,0.22128680157854907,0.37994933249442914,0.9466932341729908,0.1639097475848209,0.2694074882299698
17,0.6177182373357724,0.569685610665127,0.8843780846389013,0.13090770979508595,0.6760671413982172,0.4030119148328259,0.3430641863181432,0.947264304249384,0.4181192865221697,0.36873298463714155
18,0.5873971157646273,0.5056792775020709,0.8378639247395739,0.33493824847323395,0.5290024106180237,0.746344847899644,0.31890679533338345,0.9340863468625241,0.4169542944426502,0.4443586136514122
19,0.5489626661464964,0.559044771397934,0.7833985204695151,0.5990374463191606,0.39082110141507975,0.9999999981029197,0.3081360889431065,0.9053582359747471,0.6036751737508217,0.3946599889993844
20,0.5378717515585347,0.7079737833556432,0.7599555396828567,0.7728619785908497,0.3252767494503826,0.5945315319005922,0.2924370962240337,0.8719149440254544,0.6808819652778334,0.19702359267725172
21,0.5692279286373323,0.6638343256505527,0.7854575935497103,0.7767915201677353,0.3420289046731802,0.15453396956796495,0.25320489230191134,0.8461025254496354,0.4229153183494978,0.08259067157983221
22,0.6283665329666752,0.5323546181764973,0.8382569722234975,0.6978310541505244,0.4152544194836037,0.401634324197454,0.19112461370765932,0.830857694732901,0.023257140042870095,0.1841219355794316
23,0.6810141190916397,0.43301042444901,0.8782132587874433,0.622919938592526,0.4721346097880526,0.3776891595496129,0.1300330556032697,0.8230967681654296,0.40570992213186613,0.18668427972903845
24,0.6983015570727008,0.4366660769041527,0.8812549505774523,0.6194536758921484,0.4647232851579954,0.19336341997634263,0.09261821573727427,0.8153594583892566,0.5221247419002526,0.18803372338419366
25,0.6843574080035776,0.5862936572684484,0.8611581848566335,0.7193127838108776,0.40572690159029384,0.5309696612832389,0.08570096868626179,0.8003411513994939,0.04463712392095476,0.18450400102557105
26,0.6711664745630738,0.7697966631359199,0.8442429791746113,0.8556983367457714,0.3487705382800994,0.4701873575010066,0.10253700441424185,0.7806737993528368,0.5808182666535873,0.18836826677758897
27,0.675912133175701,0.7331490749342107,0.8475927352087725,0.8481955992967238,0.34881646239524255,0.1448562080056792,0.11461353670810942,0.7640224813691585,0.39626491285084564,0.2327659488328166
28,0.7114995354844973,0.5774726796049151,0.8747342574094692,0.7596846321446863,0.39958156237246034,0.38707053253175644,0.1006738050450458,0.7545119997708075,0.07763009604069461,0.26296504648061236
29,0.7367591137310864,0.4596069943168631,0.894059092035732,0.6700062600475815,0.43465011781605706,0.3352251791215753,0.07928174488983289,0.7499697079502705,0.43351094916021615,0.14666959470489868
30,0.7401488241660156,0.44498385665269047,0.8913307759423696,0.6403290167121584,0.40947192934713966,0.06750362253795007,0.07288535156895339,0.7456351308191822,0.6541583786167205,0.03351994774426128
31,0.7204982276679361,0.5887947160488276,0.8691324455214724,0.7226882262598117,0.33556941230792253,0.48564024502069664,0.084834688663441,0.7354958284610594,0.29544085831450356,0.1846059534863709
32,0.7002070703199065,0.8714957030741031,0.84840892840737,0.8996865267575243,0.2594153801827017,0.6823836727616506,0.11358320583175008,0.7185505011601732,0.558062902970461,0.3122293149477794
33,0.6899243415577759,0.9999999658573581,0.8312493959110131,0.9999998378974436,0.21429112550590196,0.3329832186073837,0.14710042955520575,0.6992818301108753,0.2906056153012825,0.348082634439927
34,0.7080798207859186,0.9176101056754754,0.8415305974387035,0.9660908438355893,0.22596814870001672,0.17350406458473736,0.16317459454871336,0.682445138514919,0.3009250660113289,0.21947766030038124
35,0.7417406598706349,0.7195640197708811,0.8675248459025382,0.867075741614452,0.26295609823210186,0.3546386330372839,0.16254349400112564,0.6696500112846063,0.13996331481540902,0.1539147192909795
36,0.7602538386327663,0.5735317734036997,0.882175602341597,0.7828946062921115,0.28517863140500727,0.2765018191137332,0.1654530564680661,0.6594442053889701,0.28152954664240276,0.13722674452770764
37,0.766754666381574,0.584973866318309,0.8830254347392714,0.7911003436163108,0.2766493207860117,0.09705410238901219,0.17660882969023717,0.6485521277612556,0.20890424734798227,0.16811386567228154
38,0.7719931778603433,0.6797852883330434,0.8829652382777705,0.862682658379421,0.2581838736483732,0.26320039011695345,0.19073045679949074,0.6356040289487707,0.1798953368895171,0.2617689094481298
39,0.7848325819316144,0.708170119334951,0.8872498099493725,0.896091978331272,0.2536037600362568,0.13534155952010757,0.19792826304227298,0.6222409597829685,0.04262827251724087,0.17818617989106347
40,0.8054902212299618,0.6598731519226059,0.8984569746936925,0.8836351110177376,0.26797453203188454,0.09824116314485071,0.19339691579656185,0.6100637523359338,0.008029247243335834,0.067793044672
41,0.824150917615887,0.6008621799633995,0.9095331236100362,0.8641173723769655,0.2861415967061343,0.11005247938282427,0.182664046258679,0.5993598541681199,0.09707552963786652,0.04810936996505033
42,0.8353976502645968,0.5712987284796659,0.9154553931313228,0.8531779219974984,0.2958630802595904,0.05847145279986783,0.17312206271601566,0.5895517750187788,0.054296713712039965,0.06478520426827296
43,0.8375247025680351,0.5739498113853345,0.9160325709680753,0.8537093528300487,0.2940942797125911,0.028244955508028153,0.16942611169231403,0.5800969990699264,0.0036322763727832043,0.04355362131998163
44,0.8335210796623002,0.592338433745412,0.9127996668885943,0.8625421550627974,0.28656674648596336,0.03964749441613248,0.1711454959368983,0.5707159600693186,0.001994703072780092,0.02743869646285622
45,0.8277208403644619,0.6180740018873628,0.9089948964248454,0.869377705310103,0.28086859620978194,0.04327072696034697,0.1749071642399237,0.5614519215110917,0.008760349142823502,0.017445090480921202
46,0.8226533553980389,0.6399122328801369,0.9071004783716983,0.8726485366254833,0.28116932789669163,0.0441413204547573,0.17770477503882567,0.5525409356148434,0.051804319989947396,0.08924693556404958
47,0.8143251569620042,0.6415759628086877,0.9047598983097698,0.8650675498751373,0.2909716585533521,0.0854453865999591,0.17891507999004397,0.5444193908102001,0.07354969658091678,0.15264288985195743
48,0.8192997626089699,0.5912303953610344,0.9088337823661189,0.8408914117697204,0.31121097662510855,0.14514886947757588,0.17624355654186016,0.5375273611656827,0.13506319237293699,0.13710052379698956
49,0.8360103266891776,0.48903812142748654,0.9184758391113879,0.8018786123510737,0.33449820949073406,0.2311064313161582,0.1670901079734217,0.5322586895516681,0.02957382564415786,0.1282427684180456
50,0.8510659044472422,0.4048837849723904,0.9299078553442567,0.7631991619149887,0.35603601578167526,0.2145998040840497,0.15818094691947818,0.5278633461246116,0.1341922632445084,0.19626402928170153
51,0.8531542269771856,0.40681456434425634,0.9368145140595153,0.7485961433317188,0.36469665549046937,0.14695938359389943,0.16379283374134843,0.5227005980625533,0.06986199064845042,0.1788528134046931
52,0.8407113026655538,0.4770834789716818,0.9256781686816707,0.7697880043351886,0.34595123352171636,0.21708762596206518,0.19548677104415355,0.5157486083289974,0.0017876757136810427,0.2687924090141394
53,0.8521338378541387,0.4551741666669951,0.9300795923079528,0.7495790580241367,0.37247280298359337,0.20011508305987205,0.2498848586633424,0.5083221337285605,0.2779913549229856,0.18783269771096603
54,0.8821330070770882,0.3220771375661262,0.9508473715261017,0.6766184189449702,0.4294279155149179,0.38347242260728165,0.3144655276390744,0.5021531347357804,0.08430894167007166,0.09350188977376117
55,0.9046246966197903,0.2357238103851354,0.9678776586786457,0.5977798962357496,0.48093284316043233,0.35436631693032755,0.3821825615740062,0.49726993489516685,0.29480628180916496,0.15920757532246874
56,0.9009921955316889,0.253967281248271,0.9643933458481819,0.5607182076548104,0.4679928383536638,0.17730260052084632,0.448948431709103,0.4919354074984625,0.5956650098563702,0.15040127522852811
57,0.8599154964871666,0.4265845633899794,0.9389479474745075,0.6156858029606076,0.37678806414605975,0.5085762198516521,0.5124722030883947,0.48356365858455247,0.05889284667159601,0.0809389034058587
58,0.8150966259898249,0.643386467585486,0.9098960728632094,0.7321937266609021,0.3048841942326278,0.5626490985432542,0.559943177452936,0.4723537356069959,0.7023368526077411,0.0584605198573403
59,0.7949751772079359,0.6638442354389733,0.9017961078228841,0.784892563387948,0.3058841456082871,0.14428901479265407,0.5665031031692703,0.46199848777618435,0.4648315977179727,0.13155584387157931
60,0.821529763501908,0.5158780806718032,0.9223089373217287,0.7398215162759703,0.37561706729292216,0.45126258591846713,0.5221093195543488,0.4551773700745583,0.15823428325816638,0.2550713309637087
61,0.8641844879153618,0.352622552305164,0.9479968920255696,0.6480227630575482,0.4646128433559732,0.542804553824395,0.4496112493978578,0.4520608946635359,0.31321099068499414,0.2524212060585438
62,0.8815806598428757,0.2620412949008211,0.9607638533164508,0.5684092300647894,0.5161513010735832,0.3518652801395605,0.38390247709490627,0.4509760515454395,0.32763821069000587,0.22676534953896005
63,0.8696135349893197,0.2562809671204319,0.9549000097725067,0.5587307566354321,0.48375851747632226,0.20129830475842578,0.3402511948072089,0.44910799865959977,0.6276777871453654,0.2581872809968355
64,0.8382523448672559,0.40418784944924846,0.9330327598898689,0.6424350955668067,0.38868618978647507,0.6049911146246397,0.3258830057475577,0.44376656307034384,0.11754049012072156,0.49616667392623354
65,0.8222667335308845,0.6151758746944438,0.9109176422245798,0.7522613722159478,0.3216533838580439,0.5546963746893258,0.3433259859748222,0.43527496143986866,0.4541298475520193,0.5642260038300875
66,0.8470588474756157,0.5984984155092243,0.9180544638808771,0.77621005309461,0.3372817396419971,0.2128901045253499,0.38184869682087247,0.42635267108774433,0.42943250750900597,0.352640118650951
67,0.8856407711706878,0.41351630155376745,0.9417860335859067,0.7193881281817718,0.41304816453727117,0.4720575800053694,0.4387580777660513,0.418501601171334,0.014306373169901236,0.13953550209912002
68,0.9139028279017711,0.23929761527209886,0.962282928727292,0.6405174986594695,0.4871023064229581,0.49554303964287755,0.5137919554936569,0.41166495677997006,0.3528025245897847,0.1125135948460665
69,0.9124753590792759,0.17531736133715844,0.9675501191087078,0.6007607410011464,0.5099064122465482,0.28862899883528487,0.5941222251711028,0.4048967501833575,0.012180832118056794,0.17503707648878197
70,0.9269710229006876,0.24545860832841285,0.960457559556457,0.6434050791311008,0.45785454269154624,0.3257003496791709,0.6676226145224535,0.39629574964407227,0.4025247941138928,0.30627891852550504
71,0.9448163456981584,0.429947808398584,0.9482199730299602,0.7567894186729534,0.376358446854295,0.5794832916368197,0.7263824112385243,0.3848809020195305,0.6406523160260796,0.3461724267708484
72,0.9556157148292871,0.4604970524104389,0.942136589449947,0.8174863801438121,0.3567896788545152,0.16950217018544814,0.756320174467331,0.37310622847266384,0.2824219959983136,0.1272273204013262
73,0.9801058095101112,0.30734492618981657,0.9521079562493172,0.7668542770356397,0.41176482186328545,0.36064138251588923,0.7452288765870764,0.3635661739876972,0.24586688061313058,0.14860621056801934
74,0.958666483385605,0.13584964661707163,0.965953142394748,0.6625944303040366,0.4933912631325882,0.5220270227521429,0.7030573751685258,0.35703232721970807,0.24324440776126915,0.14545486533665955
75,0.9169727555703756,0.05257942517986574,0.9727500310919747,0.5679256640956422,0.5501912717318612,0.36703880557850377,0.6549570752144115,0.3525686823693104,0.3937371061379817,0.16162767913535803
76,0.9077978626940667,0.04380988184207509,0.9672863169685972,0.5416067146657702,0.535008553953439,0.11808941429089018,0.6148932377843791,0.3483959093266123,0.49018992698491376,0.15164185779011807
77,0.9347027713984035,0.1524480497982027,0.9568794110654204,0.6115961520357004,0.45734548234102923,0.4739831694569489,0.5860959788024003,0.34230339871845444,0.1533488024444956,0.4122151758728631
78,0.9518438455412574,0.3878647144801143,0.9435281900011386,0.7315435767361451,0.37806463791209055,0.587450055295008,0.5752305193958147,0.3338017748100406,0.5926279205908804,0.30955604440398043
79,0.9515917103673712,0.4666033243969316,0.9397057146957674,0.8025232204832188,0.3590977906640138,0.20544062828754026,0.5786972260988914,0.32460553917142254,0.13151346668944106,0.18934323753588642
80,0.9478275205498603,0.3400621598975976,0.9486749874595478,0.7853271064253315,0.40653115756694697,0.2806406146691691,0.5940851795422808,0.3165825106223559,0.24884092477862543,0.14520750862044085
81,0.9114328518746485,0.15283044010063937,0.9590057625437646,0.7174701799288251,0.4854567515449279,0.4461030291893647,0.6234479581630197,0.3101237806085345,0.22271253536176736,0.14527165381235216
82,0.8784752365698177,0.057664138558422506,0.961783652193663,0.6663288849986811,0.5357149709856001,0.30883617244700473,0.6631215513170408,0.30453249901602025,0.284127217335655,0.1251714316197557
83,0.8753823224304582,0.065283322387505,0.9580709469063238,0.6651111068511674,0.5247004256414572,0.1176411714620442,0.7083869803622358,0.2985251438198048,0.4167255575291305,0.13559018511293192
84,0.923252081963965,0.19564830020655438,0.9542502420851157,0.7409557831495012,0.4473839377078901,0.4107636115407822,0.7507641965471772,0.2906994323899618,0.140793560447196,0.2648121261907909
85,0.9813120791283222,0.39635995365966575,0.9475153203335581,0.8572252568526253,0.37125715701534817,0.5109164695986956,0.7886529717079751,0.2809819308874124,0.5509896515200142,0.35912075890752104
86,0.9986809632222667,0.42397259952050664,0.9441974330143056,0.8906085900540469,0.3482363109514826,0.15184347336518114,0.8176225312130143,0.2710494067104586,0.0638669992193618,0.18608723419438422
87,0.9847820454222505,0.3301617748035762,0.9484837751700709,0.8444578506568836,0.3725992332925065,0.21277832336247132,0.8268774717502639,0.2620879951508092,0.02896341300446652,0.12072748278900478
88,0.9663791330448941,0.22984293195080355,0.9534446717914877,0.7814631999197029,0.40754169854344907,0.24683959920688786,0.8207792137362885,0.2542756342628468,0.19997788783164822,0.11773001966671205
89,0.9585394606105806,0.18352255212924676,0.9552346312790877,0.7457986562953602,0.4255038832152413,0.11876312883736118,0.8134294664936814,0.24704576340076534,0.048661514439601254,0.0872915517526738
90,0.9625413394853974,0.19476019234367162,0.9537828342663953,0.7454583605589237,0.4204584155152537,0.09981840869720714,0.8083120417328179,0.23975783868438102,0.19807832367325093,0.1402099214146445
91,0.9717174814774977,0.27691691246877054,0.9492238375497132,0.7825429518305228,0.3916339447652409,0.22839316852303018,0.8035869037541946,0.23186416977788732,0.10647655884073698,0.18737720800710628
92,0.9723601993469969,0.41047676866466304,0.9436450419558188,0.8398674153583948,0.35497634034413345,0.299873518391715,0.8003320279745707,0.2231344423296162,0.23972657068248687,0.13909781213140124
93,0.9570360749701646,0.45251562800462647,0.9410654465320454,0.8599345971990611,0.3405339123737558,0.15424242447908657,0.7972635498712995,0.21434984765875828,0.2988858784396687,0.0772613299830369
94,0.948770727723468,0.3128086083520088,0.9465663408228212,0.7956364233941207,0.37183539586295133,0.3674091493737092,0.7926597182172406,0.2068899451711237,0.31653319397914476,0.34557655779206836
95,0.9614392671920273,0.09445114890452934,0.9627556479985022,0.6557827251909634,0.44715928646639186,0.6336261843414518,0.78637269628884,0.20173179490525153,0.022595501346320143,0.5379857786877182
96,0.9855292747800789,0.0,0.9820025813216416,0.4957360343066662,0.539204051309461,0.6659017517460787,0.7793066848602613,0.19896563576580875,0.24656573402170562,0.569610268826588
97,0.9999999942166653,0.02539080909425209,0.9957379974490405,0.37058623631466725,0.6133995631100091,0.4974656360755148,0.7726622438324241,0.1979521911109809,0.37199494697326385,0.4945606699150206
98,0.999960810236169,0.05689917086884466,0.999294900130138,0.3136871998535188,0.6390610281033353,0.21127803825485086,0.7676390126107899,0.19762934605022606,0.05120265147007293,0.2740197913373395
99,0.9896972426360655,0.05861501680904686,0.9915738187004401,0.34156760221287835,0.5993282508974238,0.15222352861659658,0.7668985970124164,0.19675600228436496,0.5207346396223241,0.09389198922100137
100,0.9443220294666714,0.05646697399770413,0.9705085981431087,0.46012147226498834,0.4968869649951165,0.5436500369707911,0.7736794866608039,0.19395869743886873,0.42077312593729493,0.3683766098775955
101,0.8701113110462392,0.21875299231091722,0.93368252757726,0.6541499723510913,0.3711163697061796,0.8310733237550839,0.7891936621762854,0.18841646810994211,0.19475384336593476,0.45471352352015154
