Frame,Center of Mass distance,Symmetry,Grounding,Arm fold,Leg fold,Kinetic Energy,Potential energy,Bone length coherence,Torque,Center velocity
1,0.6728763699326171,0.2996483043079786,0.9999996198082333,0.6442436657663132,0.8558825510852273,0.35932383068162305,0.6706055002494047,0.9999779782900765,0.02386483218416542,0.48170892817870464
2,0.6663182142859476,0.2800438197392575,0.9947919423137898,0.5896506277900233,0.8685124737969427,0.35932383068162305,0.6706055002494047,0.997892758873372,0.02386483218416542,0.48170892817870464
3,0.6519262280868139,0.2612502597830105,0.9833722603262592,0.527412219266968,0.8783052411549955,0.37907726288894344,0.6648952712057768,0.9928783040216475,0.13090875445047884,0.5064415153669604
4,0.6313067992188193,0.24584102755984313,0.9663380274065854,0.46010166184422785,0.8778637965517073,0.358163588409961,0.6578756130286857,0.9861458484673662,0.5422630765189542,0.48132982582248085
5,0.609690591795302,0.23502629430216235,0.9471484240455575,0.3943198674852547,0.8619625907555646,0.28678245934056246,0.6507503739245261,0.9696087537911939,0.4860616184263637,0.414413851962076
6,0.5888115349363131,0.22725554219990102,0.928134275401161,0.32344522051373514,0.8290270819659286,0.19486617239377366,0.6439614916495967,0.9521971442241841,0.3501803068686757,0.2910075096914783
7,0.5746020797877043,0.22145386034572676,0.914497208805194,0.2470273619566219,0.7861387205004742,0.14886850884728167,0.6350628061045994,0.9362430876751724,0.21046883757692808,0.26223750718178107
8,0.5757150355757381,0.2179346673801208,0.9139330311387899,0.16811812731798495,0.7508024334743681,0.10712583479342966,0.6234678012219974,0.9222334756406687,0.24897250053328468,0.15356680759097582
9,0.587125088099643,0.21093298053852108,0.922996174777102,0.14044316107630125,0.7326587394190667,0.16171185597278806,0.6094621885155955,0.9138213166266894,0.07933883919955476,0.154091675033091
10,0.6060083908247742,0.20149062181218508,0.9386373577483637,0.1397620312235152,0.7311801551651169,0.19395378532181237,0.5928588027899433,0.9112465561229838,0.15055355904511655,0.20626787513044262
11,0.6358153673951245,0.18783296667913466,0.9634505872855024,0.13747309592727638,0.7519913152749825,0.23363670376379622,0.5774809715365302,0.9115377137737891,0.08442175005258139,0.24788730165934267
12,0.6727231251142312,0.17162212744338176,0.9901166791318764,0.13565613021176595,0.7897012911433735,0.2625187370521573,0.5662093265378398,0.913003333446972,0.1384279049050153,0.2264302064894314
13,0.717997279202717,0.1497288994351807,0.9825055745277363,0.13347341175157892,0.838371559524989,0.3167669810089757,0.5573636814276389,0.9150267245877397,0.26571272298960047,0.318769726798752
14,0.7616685154172876,0.120414428069638,0.9604013053137311,0.13021979646154047,0.9002746083308449,0.38296213432139337,0.5486980823735688,0.917433873341309,0.2244558170849015,0.2851567472303038
15,0.7923331913460097,0.09205904503491043,0.9466432354649176,0.12620085329135383,0.9388341750795212,0.42568344453758244,0.5399462985838545,0.9204562626273329,0.24467662760680217,0.2947857882430931
16,0.8010240819983191,0.06579693896285274,0.943332283958865,0.12156744452342387,0.9721575061989739,0.4865591539922192,0.5317315036893165,0.9249213900269714,0.0780588703262432,0.38059105830071194
17,0.7757397656566465,0.04612857612735113,0.9559740988001562,0.11563547862411311,0.9962183815591442,0.5187328048497849,0.5257633029794232,0.92998611852443,0.2776310322347567,0.43820139113244233
18,0.7321344145450923,0.03691335572613533,0.9799478682706622,0.10938226950259111,0.9995320109640623,0.46551973541312147,0.5256871767737616,0.934108528428223,0.24922818607267863,0.3907729612261153
19,0.6862731114031221,0.03394274822099268,0.9898323214876803,0.10609875392280996,0.9828195254308378,0.4209774936592985,0.5317639857974742,0.9364910588427109,0.2794505702163207,0.38281106357650696
20,0.6483154855697507,0.03708355407839232,0.9573595860452663,0.10481501818153545,0.9523885144344537,0.3644832475981039,0.5419912835826964,0.9359188190036671,0.20057075901152666,0.35126471155637673
21,0.6173204078077537,0.04176947672000959,0.9238840361448742,0.1039997034542297,0.9092913068212495,0.34133708052405537,0.5545950972943938,0.9320137111844325,0.15194142293935867,0.3762353324334353
22,0.591285465702026,0.04730204885688152,0.891753134891755,0.09905555006824693,0.8747011238103859,0.32464304807074795,0.5674651823636605,0.9249937554925967,0.16480652447294708,0.3145125939863735
23,0.5720335021042195,0.051988051080224675,0.865094605748683,0.1572147587194893,0.8495371718238303,0.30613771997863753,0.5794872620401865,0.9152110140294,0.03403538893667178,0.2819945628666976
24,0.5628773828262318,0.05718968440820577,0.8504032983122803,0.23365261701762416,0.8374077237385731,0.31122324754854513,0.5880820889251182,0.9027348076490429,0.019284211050498108,0.2615873214379831
25,0.5577875415049547,0.06310772607714887,0.8434819122493749,0.30740807739414316,0.8349493628634923,0.3343511923639941,0.5904927143548327,0.8879471254698035,0.37207673746527936,0.30760490471693025
26,0.5613753507377184,0.07015063317625608,0.8448310985186315,0.38190532032459523,0.8260067546567309,0.402060867151316,0.584355925786967,0.8713218492236072,0.17699087995061594,0.3660231458612964
27,0.572483092333499,0.07928116796044438,0.8502142307297061,0.4516122137633783,0.8031029913110609,0.44932921301025114,0.5716542038853871,0.8531528792709373,0.032667493882217596,0.4256334350788597
28,0.5792744488741831,0.09255901520884639,0.8517010581990748,0.5166996300048651,0.7864060540772156,0.47117707213782645,0.5568658519181912,0.8340942970135203,0.29052336740123696,0.4978803374507388
29,0.5803758659209369,0.10792652098007627,0.8501522165626194,0.567419507732411,0.7719149313554787,0.429519798018679,0.540980228809966,0.8148623584021734,0.5433468635690456,0.513123963541355
30,0.5757967803544541,0.12493620974710437,0.844790259920794,0.6060325590893249,0.761016388061042,0.3492184213000438,0.5251207211616447,0.7955454909918268,0.6982863739928704,0.38967691658919656
31,0.5717749910983516,0.13993795968195355,0.8417182898391165,0.6333662474622141,0.744297095966384,0.25046277329606664,0.5113525323202072,0.77625828759869,0.595943805404715,0.2753142059632001
32,0.5722562469774036,0.1515976627756225,0.8428965590137214,0.6481500524754764,0.7235878692696087,0.15253346530196055,0.5020165461697599,0.7567378823721342,0.20264960897530887,0.13073186833114653
33,0.5799257506817886,0.1556086385360818,0.8502913703033971,0.6506107909890504,0.7053463950519127,0.10770740645785216,0.4993174134941965,0.7370918825720728,0.46451446591370277,0.11033448754974781
34,0.5940193091786876,0.15149294867625998,0.8633914849648501,0.6415878938714434,0.6897302072995559,0.19510205551658563,0.5039844893079415,0.7174743402059138,0.734574978740585,0.29042393303799213
35,0.6231009475036968,0.14944491829494863,0.889540287905298,0.6163889648700143,0.6592220775863363,0.3317845177030398,0.5163099394183996,0.6971360887681255,0.3921482209496975,0.45111836686078444
36,0.6416783451944101,0.1362031899466901,0.9045220031485378,0.5965462102974489,0.6464009727440846,0.4036435033609193,0.5385043856804488,0.6762687274854909,0.34248716146443997,0.5535605027060119
37,0.6543345868191279,0.12155500496128079,0.9136925371737536,0.5776715657245535,0.63579161179921,0.477210053580344,0.5692389188981692,0.6546895869399851,0.02109001299451373,0.682726964196538
38,0.6621494801382062,0.10664755087702545,0.9194054032488372,0.5652897547497585,0.6242605335833293,0.47459077836560337,0.6069528117335504,0.6321683971134979,0.016538921480118433,0.6650966081045935
39,0.6605566254246241,0.09167189204226593,0.9179579018366446,0.5567713759450457,0.6147182514835626,0.47594211654885876,0.6509456183683495,0.6085502999628237,0.099425430116806,0.6656090392142417
40,0.6571158382804332,0.07733342750468475,0.9154622097466529,0.5578435277308915,0.6037079295300268,0.4590942591434526,0.6979303905358943,0.5838859234660995,0.1007114003785446,0.6462817906942213
41,0.6548635275715914,0.06483817352960523,0.9135291827824084,0.5638603636846478,0.5893417164523872,0.44570288545749437,0.7450725587387339,0.5582653731992199,0.2616501396180092,0.6686929962024705
42,0.6521154717899501,0.05165529922178611,0.9109608887407096,0.5737364629718806,0.5790048035419043,0.3969398157912968,0.7904147729438025,0.5317903549849997,0.26749952589498927,0.5875129610607084
43,0.6454467836946022,0.037718044222538966,0.906905767229642,0.5894585312679859,0.5700926130171061,0.35694957863728904,0.8332584455575728,0.5048202139182109,0.15740039738694753,0.5218880271690218
44,0.6410494984857249,0.023052653908150932,0.9058152254133485,0.6067089371589315,0.5616942998417772,0.32951389889326926,0.8719334061103908,0.47771462026557254,0.20959384136969633,0.4611454136653807
45,0.6404820517474858,0.010440720579539028,0.9063930159456999,0.6279237829058874,0.5514851738504258,0.2948524666325897,0.9049702846387537,0.45066639270921177,0.13854873873019047,0.3805015679474089
46,0.6443832970214437,0.0018802374836351928,0.9099489990387681,0.6473229497397259,0.5420940397318297,0.2710936200996155,0.9312946283803931,0.4241125390900872,0.1953317544465682,0.32160340549309335
47,0.6522073101767736,0.0,0.9162623437561137,0.6636907962244982,0.5342202041112164,0.23985134445689235,0.9500598712708977,0.3983717689957273,0.19136579634712544,0.23304967618110708
48,0.6591089809892451,0.006407026834175508,0.9202070497989551,0.6749889814647732,0.5324059508368961,0.21246375386376637,0.9612310436420017,0.3737134800308371,0.030984240167560743,0.19155383622782238
49,0.6705408924556553,0.021285213937381062,0.9279255447899946,0.6798424439744711,0.5334308479536244,0.20346870727616448,0.9661301405865432,0.35034417038582244,0.033739624808654375,0.1633995579801882
50,0.6861325719957218,0.04110111352284758,0.9385405551460847,0.6800021080555321,0.5349151765755005,0.19939480505489293,0.9645142507400178,0.3285112333659828,0.07430606941404479,0.15297538889908652
51,0.7079010802893608,0.06356007470000924,0.9527236489205291,0.6725594973394572,0.5402092929458646,0.23221844776643696,0.9558418469770442,0.308453514753793,0.0,0.21895562512734307
52,0.7271392105309684,0.0874395857779386,0.9631299286654527,0.6561834756230278,0.5519707197066195,0.2552320214041847,0.9421347006874949,0.29026307432921244,0.004122639734368233,0.2679800521684182
53,0.7416626742111232,0.10963729078043623,0.9694795743586518,0.6309611770013872,0.5670007766458086,0.28288341136209216,0.9252290853525081,0.2739184824421079,0.11403590808463554,0.31328520748108446
54,0.7526684692422051,0.1304210869166664,0.972767837754798,0.59759288148844,0.5833252855666095,0.33701068272467793,0.9064649421114037,0.25918854071174263,0.15714147766089978,0.3894680800322811
55,0.7525694066416165,0.14890021840496992,0.9697624194621824,0.6147326559144132,0.5993946842581006,0.39068202856072315,0.8879352064500587,0.24578457079228605,0.05835520952929063,0.46875615144618954
56,0.7418592340726406,0.16707184774448156,0.9597962890494938,0.6770691472478285,0.6137305737536172,0.42276618069707544,0.8714596779510306,0.23319219168728522,0.3865724340309659,0.5216507129486481
57,0.7151685600226481,0.18597679650098364,0.9393830402940399,0.7351311775735876,0.628671756130509,0.49641988344039334,0.8584126739953748,0.22128509341600303,0.16800873303063807,0.616752941513539
58,0.6732684243245051,0.20238006160569605,0.9073595294278243,0.7827305297731347,0.6424972786897173,0.5356905658102183,0.8502964773731615,0.20971872207935766,0.14134196424573914,0.6863498051733666
59,0.6193527109877842,0.2165372900783306,0.8625308493289681,0.8169035790456338,0.6565426842625388,0.5718942382643848,0.8479516798606433,0.19814541718126885,0.04819931881761628,0.768070700728829
60,0.5629651951767158,0.23165001951921332,0.8105523895274603,0.8393698992521177,0.6669539857109493,0.5698943025998005,0.8504792227911613,0.1862071651994758,0.018583699524878542,0.7764030494479409
61,0.5035811966599962,0.24987032863808295,0.7492037403335337,0.851480781654047,0.6741523690484214,0.5918931108917642,0.8555198002438213,0.17392887282149844,0.018113439478586905,0.8303846893920946
62,0.44328373934563625,0.27335798232460135,0.6815387213409474,0.8566095041269068,0.6768057425483486,0.5984333489918187,0.8604741822570566,0.16134151898202578,0.11728654511137344,0.8249006022183507
63,0.38044526419638647,0.3062101895296343,0.6045579644197225,0.8567143877840322,0.6771324869276122,0.6387555799992508,0.8636917359611113,0.14854946282014847,0.01266761663518308,0.8877478107597342
64,0.31602638443309694,0.34566620868976855,0.5187696832318301,0.8537166064515714,0.6760269678431561,0.6533195867264838,0.8627498757276328,0.13590113019266084,0.08643657917340129,0.9309129900273111
65,0.2519453889001928,0.3916750988648797,0.42561532902681354,0.8448365650038301,0.677189893658538,0.6786760936209286,0.8546614684040277,0.1237474174759471,0.016122835361318012,0.9951604211343312
66,0.18905398607228655,0.44357679772379865,0.32698406508976996,0.8297550123662957,0.6739319381839957,0.6817979726205269,0.83982372087623,0.11236738303428198,0.04813827487816898,0.9845670140674667
67,0.1306707236188085,0.5027056466415671,0.22873547393985427,0.8076649284151024,0.6597364606640456,0.6757942203278777,0.820510934920257,0.10180837503344033,0.20603093105275985,0.9298953794013731
68,0.0829621573934032,0.5643438113085595,0.14603428824024375,0.7794564569120817,0.6370306838953216,0.6381530645101159,0.7960070611260941,0.09232655040035045,0.4006927380582535,0.8756866010945021
69,0.04521784404540721,0.6249820536401858,0.08097083918388734,0.7455196897067796,0.6103393374646698,0.5807353783551424,0.7642844893826723,0.08394863540044936,0.310007560157543,0.7840247639193435
70,0.01638922682928073,0.6810982806548497,0.02877911114923359,0.7657360786262534,0.5881095733122914,0.5355824177620878,0.7245419051740175,0.07681583522859715,0.4554368672972751,0.762009110777247
71,0.0,0.7281671573854767,0.0,0.8002607064563338,0.5663123395990284,0.4720128950048509,0.6777217142198735,0.07105887960244336,0.758208519448765,0.6847013373557427
72,0.0038992454586541667,0.7620674400894024,0.014166455827178853,0.8255741411941897,0.5481313959269032,0.3699862718297287,0.619087188455447,0.06691310034931627,0.08856533168921281,0.46667603060711355
73,0.018513851360269302,0.7889263136475935,0.04792333829044443,0.8499897094266214,0.5323014979848468,0.36878383730929826,0.552183355311092,0.06415443190531507,0.44775560805665077,0.4870582432231993
74,0.04299442223680925,0.799668174729094,0.09981558327429782,0.8689010126385748,0.5220710659778198,0.3190201089859917,0.4847158881442309,0.06279632266272178,0.031213792313165574,0.39231406026351995
75,0.08673543173811013,0.7911093149304814,0.18562806511276206,0.8803243109974676,0.5204072346606309,0.34337691600330866,0.4118362603996888,0.06294156781018347,0.08670623288668663,0.32864228703677656
76,0.14052680696350223,0.7665366844984739,0.28608194054583247,0.884107406288545,0.5239560851969585,0.38292649889135927,0.33523592108505407,0.06464490762758067,0.23091557264233523,0.35380287429102586
77,0.2026231625475057,0.7247214397584757,0.3947080731681204,0.8754563165665125,0.5353310185244916,0.43238885498509644,0.2601571808661297,0.0678501304879017,0.40859560237100695,0.35904772583240163
78,0.2709948999571186,0.6660412666152611,0.5037985557732152,0.8567879787777712,0.5589149195560321,0.4991879235565441,0.18914619638768548,0.07240208770875246,0.3905389147180677,0.38544666400206495
79,0.3434734080677457,0.5962092383031113,0.6099320213868339,0.8295663113483106,0.5851988402939217,0.5632605159845948,0.1261950873635011,0.07830254860919943,0.32597462019092366,0.4893810601811491
80,0.41886757371616734,0.5221587615695042,0.7098035686655734,0.7919175109621343,0.6128282617086268,0.6233130269660173,0.07509349276547918,0.08527809839860895,0.16606083628929783,0.5956657308000468
81,0.4919668519717714,0.445288235798235,0.794421143382163,0.7491073393359683,0.6368912468145334,0.6601718637257017,0.03701639331426535,0.09309122520813236,0.051441497011974126,0.6618456905673226
82,0.5590819825117556,0.3697410716414227,0.863287119659269,0.7010561939100665,0.6584701894267342,0.6823774151869418,0.011552760580896108,0.10140758075873463,0.11132621564250197,0.7235557026795187
83,0.6151341860463578,0.30223545420316716,0.9146938390910703,0.6508281104630054,0.669148487069558,0.6658488341421371,0.0,0.11003939511097822,0.17879548424345507,0.7328596702692197
84,0.6534537263625273,0.24399216239165877,0.946399716418563,0.6017586504048387,0.6744850002212958,0.6380739397929897,0.003383059316052406,0.11872446728793055,0.04143875742776269,0.7539459518233286
85,0.6728424608821113,0.19372279758238395,0.9621437521547445,0.5578560727112296,0.6808383076071569,0.6323853234014194,0.02157679719126634,0.12729765305536217,0.04392967880554808,0.7819148561291419
86,0.6722229514989427,0.15549704559010513,0.9637803211495112,0.5224929516529787,0.6874475091059752,0.6257328616764517,0.05364061866715299,0.13554182099160184,0.18574877940845996,0.7881937075231982
87,0.6516637340312484,0.1328518963834369,0.9500540146545716,0.4993456307156926,0.6935371396581963,0.5910889363671361,0.09738863042431793,0.14309919699779228,0.4465192263508846,0.7415941552468545
88,0.625807589565985,0.12474995565507724,0.9299462991125589,0.48590157172557313,0.6986566656710266,0.5193247048695069,0.1504065812699312,0.14975972995152584,0.3742207122691349,0.6890342467976328
89,0.6023408799828128,0.12596765944592814,0.9090354244797672,0.4824370472359254,0.6981857037796988,0.4561404661882201,0.211919909674937,0.15523468590943554,0.14058290423846723,0.6055043177877063
90,0.5779231623889213,0.12579609958890947,0.8837971710170018,0.4857484210088486,0.6961840642553642,0.4488606403092049,0.2785710363978319,0.15982937549863055,0.4145375973330247,0.6402866790873045
91,0.5586264565228245,0.1315059699426347,0.8630405755315919,0.49753997701804603,0.6847972952565023,0.36772659887791814,0.34843706363518134,0.16284065268885656,0.19319564093749617,0.46101033267104535
92,0.5431988362398065,0.13642084641317032,0.8440627278630446,0.513766954315181,0.6672705116661255,0.3488092098840956,0.4195866811191392,0.16441015019340807,0.18111612606216682,0.47620128576311016
93,0.5307416408414924,0.1422417961043745,0.8266654851848267,0.5362635388876115,0.639836579887865,0.3251137099009832,0.4874390766661081,0.1644470136338901,0.25205868663452813,0.43789433993523563
94,0.5222998345942879,0.14895997466427222,0.8119560272604972,0.5603982802101545,0.6124656577357964,0.2952359097537531,0.5505306658579313,0.16293939656809261,0.25745357704021204,0.3651148637326348
95,0.5178382595337303,0.1565802586503113,0.801579998328782,0.5863729897281206,0.5846402244845516,0.2657608150631358,0.6075057592307196,0.15998937421218978,0.29936933715643654,0.2673527692841368
96,0.5193626994777792,0.16510732290392793,0.7973342966944791,0.6117123379765543,0.5537179364720237,0.23947510922997958,0.6576950205554379,0.1557823531114421,0.20554286122633825,0.20706945302229673
97,0.5262279780290439,0.17699342146202152,0.7985745800361707,0.6362080784080424,0.5258397113864128,0.22768282877077237,0.7002372764371586,0.15045939738063482,0.08414343106639782,0.11506727116876836
98,0.5382663515890755,0.1900896926123885,0.8052857229472526,0.65889291562719,0.4982558878320188,0.22651483397967134,0.7356218883269771,0.14416236280998054,0.08987139034989593,0.03073670696701128
99,0.553230471817596,0.2048263683930236,0.8152639536852272,0.6818186505006915,0.4689088255516595,0.20457314141850197,0.7631363921674733,0.13705896113261706,0.013369849964899346,0.040293158062814076
100,0.5709734606743418,0.22137370525074906,0.8283489429400759,0.7035753503245193,0.44147141999098055,0.20125176955868798,0.7816415858388692,0.1292616115815615,0.16019875662410482,0.05312536781296427
101,0.5882446891810388,0.23762209120549188,0.8408077403614337,0.7249331858974003,0.4236648328664434,0.17434315135446884,0.7927653730261554,0.12097966142830312,0.18936124322863562,0.0913037420238218
