Frame,Center of Mass distance,Symmetry,Grounding,Arm fold,Leg fold,Kinetic Energy,Potential energy,Bone length coherence,Torque,Center velocity
1,0.7217637493939512,0.2664124361609208,0.9068529170175458,0.6676231734396956,0.7126205004817787,0.23750048158614404,0.8077705704314296,0.8360383809079,0.0487752553034084,0.2509989009346579
2,0.7299806107286197,0.28410793593854333,0.9120590216329473,0.6711946123214825,0.7277986067672347,0.23750048158614404,0.8077705704314296,0.8239191409977604,0.0487752553034084,0.2509989009346579
3,0.7315684998426223,0.3036321312555993,0.9135569638398643,0.6764915210103748,0.7430955890023261,0.26603518186309233,0.8210619408164432,0.811323259144642,0.00928714526977084,0.3067999160339396
4,0.722422095998384,0.32228290770427886,0.9101272373747449,0.6838597164629955,0.7588290233787552,0.2799954658574587,0.8342392208526087,0.7997573476315629,0.02870491945702965,0.2956197280819554
5,0.6982128711657714,0.3437666517713555,0.8987545320602613,0.6866678861625036,0.775511925497376,0.3020059804276215,0.8469293600755504,0.7908507611771088,0.005050860345800932,0.3277003966511298
6,0.660032433139714,0.36876151833473303,0.8775545488378514,0.6835297736806084,0.7907675180635498,0.3104987502249142,0.8610382074515625,0.7841148598520568,0.009386272859952926,0.35014249504753636
7,0.610437305932091,0.3977917452546312,0.8457999007857121,0.6751638722826673,0.8008003359824711,0.31043323344419654,0.8785605590400068,0.7789926127677441,0.028538361071641913,0.3417977414869505
8,0.5577319846476523,0.4302916645156787,0.8067519577520486,0.6627417031525832,0.8046733252736366,0.3039736279830421,0.8991635821993378,0.774354517779941,0.06526153476210682,0.3315451262435651
9,0.5052445557193754,0.4660007193453356,0.7618849193439545,0.643723279960249,0.7993291084609702,0.28958686891026225,0.9203349237942602,0.7701444828616099,0.07249514047130375,0.29907208290573817
10,0.4526076875061546,0.5045468674159019,0.712800331840304,0.6079836622593924,0.7878919036482152,0.27923352672262575,0.9399733388680724,0.7661347027629021,0.0499981875181724,0.26735664648832413
11,0.40260871949566396,0.5457814235667416,0.6616803560065063,0.5544231415487971,0.781312645884854,0.2764526047174231,0.9570412964429965,0.7630135164654865,0.013623361176721664,0.26477389507201526
12,0.3457763779604961,0.5894526528632155,0.5971458112735717,0.4849502755614477,0.7533523504544627,0.2815103801307273,0.9699142341333272,0.7608566260269121,0.09445317561999529,0.23573510738320447
13,0.29559805969572267,0.6279107900658315,0.5345905359984857,0.4716405971275577,0.7238743882300142,0.26313412418925536,0.9744263694243644,0.7596776384635039,0.02272150130454568,0.24491955609312327
14,0.24641311471984517,0.6586257340993531,0.46955955508746694,0.5220337709369158,0.6869086905246224,0.263454224707397,0.9676911014866497,0.7598020100949793,0.04202299531421974,0.2515716663041401
15,0.211624655911877,0.6768439185890016,0.42083110658113876,0.5494882798880518,0.66121897123277,0.24604103752971437,0.9474599955360304,0.7619498993367939,0.02775676374591771,0.27881715745091024
16,0.19069957062789078,0.6819026984476334,0.3905031729364531,0.5468734757835071,0.647699243324683,0.24475635945739968,0.912233201816484,0.7664026258148042,0.07737280235498356,0.3109708911466835
17,0.18512132517774216,0.6721097827189452,0.38225801554390687,0.5089578948524646,0.647067555225764,0.23496286730051708,0.864323960063424,0.7732554385817747,0.012831189526039594,0.25296598177023943
18,0.19832224629216416,0.6481926448530917,0.3999851039378865,0.44361331854926317,0.6537043244346677,0.26093026362571564,0.8038710769235512,0.7824638683482189,0.14223023798325082,0.19977578923005607
19,0.23322676992578453,0.607514440206764,0.4482905024837584,0.3596920720289875,0.6638415772087027,0.30663789180098305,0.7326714686460966,0.79383651040618,0.19718629320210734,0.16737836354257976
20,0.28775002840125746,0.5550407959785117,0.5195679455659871,0.2648932548500647,0.6717465116352345,0.36747785020219675,0.6556090179092332,0.8068270767128534,0.2787684663196063,0.21053843835404237
21,0.35335340569854234,0.49560357670280053,0.6012791820606771,0.16367672358818444,0.6298766645079346,0.4545394472768297,0.5771158188121128,0.8203235908307026,0.18910415832324184,0.365524001600978
22,0.442082398915642,0.4209092902977005,0.6933724099318409,0.057210886696110935,0.6038073627280146,0.5249255074198113,0.49883986076443965,0.8341037842204799,0.004716551094843202,0.3719243349909233
23,0.5369170507026645,0.34474989274864504,0.7749411908276045,0.01685606977681247,0.5867553615511969,0.5377114683477152,0.4243182538233104,0.8479495061675282,0.005025414437786793,0.36313523414253684
24,0.6368467808628939,0.27106512727754795,0.8454588707155484,0.12544646681518248,0.5739170403931544,0.5396109488141473,0.36009605176104903,0.861453623473072,0.06203679907451791,0.36413596371417467
25,0.7297596364976665,0.2069233599860045,0.896457975132072,0.22978760612315866,0.5609320815969564,0.5202848221045985,0.3089400303307257,0.8743473712280796,0.12680562941146503,0.38967556460328445
26,0.8094089441653961,0.15691367823867358,0.9278349000052367,0.32751965757424667,0.5550732404395096,0.4867930863997893,0.26872304700228555,0.8867761689268692,0.1849443727123497,0.38486847826996745
27,0.8636364740766009,0.12572369488179208,0.9423157274781697,0.41252437345604503,0.5528136473510823,0.43774645910654797,0.23624191036160452,0.8987915470820881,0.13807628840080008,0.36150776839252197
28,0.8903807994178242,0.11151737525970112,0.946710266863305,0.4785063191689218,0.5407990759756365,0.4024559648958932,0.21144049968436318,0.9101689838592515,0.2822939400654934,0.35630844640223525
29,0.8793707451895835,0.11248508496118761,0.9431553521445822,0.5163187787505727,0.5263740262982709,0.3311034325939145,0.1937976782520514,0.9206471600669347,0.211668732960711,0.29720862711278995
30,0.8506128179153228,0.12210742615578486,0.9354670666387541,0.5195386835766207,0.5116795714236082,0.27931489102225004,0.18082313105885195,0.9304774779037874,0.1785948621297445,0.2547067492903976
31,0.814306494144191,0.13401304873919015,0.9233561823116383,0.4965656217159455,0.4969989084697036,0.2344365870464199,0.17139420324919952,0.9398900037032316,0.16247581514394135,0.18882446693832325
32,0.776934444771294,0.14139561586765895,0.9100775937569401,0.4589917132049318,0.483144733839217,0.19635899527897782,0.16389504878681316,0.9493332440630057,0.03282197270069099,0.14480530993624338
33,0.7308887904162166,0.1386331563474252,0.8926462086516427,0.42414261821495985,0.4818076402468208,0.19855323599017688,0.15797739899100313,0.959050939523801,0.040595766163790514,0.1377180663066215
34,0.6814100068560471,0.12734930648091913,0.8729312171271558,0.3954462896080822,0.4967320457392109,0.19629519724597308,0.15511325115214863,0.9692774536782983,0.004181729863369984,0.14516725146150078
35,0.6297313277533456,0.11215337398398613,0.8492231519963316,0.37479078820137185,0.515039508892943,0.20029701379849846,0.15751253470583063,0.9794584083577007,0.058159545327491576,0.16207705955016255
36,0.5738242879931683,0.09944250862174983,0.8176239100521187,0.36500749186136333,0.5360643703902878,0.22374915016900704,0.1693538382829494,0.9886224527999695,0.11513824613624037,0.21824179810852684
37,0.5184532481500718,0.09298663472582008,0.7779651346775908,0.3659514917038618,0.5457048361234579,0.26284381138423146,0.19402236383214824,0.9957257061701951,0.06732146191272988,0.30610181550777144
38,0.467671276005512,0.09482370185588981,0.731071341612014,0.3721524547190079,0.5467863619735392,0.29759582526939715,0.23145483783876133,0.999806409169548,0.007059275796596344,0.39141091781862314
39,0.42736358316494055,0.10364733909513187,0.6846912520698445,0.3805605034940464,0.534551391616959,0.3172940206513963,0.27975490672061776,0.9999818934547275,0.0688635488169336,0.43855843279770784
40,0.39997175908192345,0.1156212606462905,0.6478902223465594,0.3878078282543865,0.5114491820249216,0.3142902626115488,0.33619934948366725,0.9958938047128894,0.01719788429910661,0.4264268205741027
41,0.3841779733345791,0.12382961406358196,0.6231828096050669,0.39208037994659123,0.4738707287657856,0.3224864473402292,0.39959140669650367,0.9872503980461972,0.08939852165004551,0.4122543470311013
42,0.38176444711207286,0.12715132915402833,0.6123389167411492,0.39051560398473384,0.4323109429387085,0.31387075332322223,0.46858256819626753,0.9743549980541221,0.009551655601786068,0.3555980891169112
43,0.38860893127994606,0.1270285987052234,0.6109488954425124,0.3826554526389396,0.3936767461715021,0.33226325180872057,0.5420686254768093,0.9574783692402145,0.0036065263791849695,0.34421177757751975
44,0.4130575372081781,0.12440608876140284,0.6285227361467364,0.3980432288118673,0.36618129689933787,0.32059462030286046,0.6156765293061939,0.9372937678917842,0.03659620460837267,0.23281518450478064
45,0.4529937450148148,0.12163948383633709,0.6592694029155428,0.4445821406394837,0.3501105031739066,0.3318629022888785,0.683378729493045,0.9147266775161408,0.11175199608130411,0.14771211026610606
46,0.5094134078213894,0.11728918344830767,0.7001304172082995,0.485613691962857,0.34023963788384526,0.3692209255442582,0.743747817010042,0.8904772619913188,0.009539040426255115,0.09685301055989824
47,0.5675519091169285,0.1137144264116552,0.7385804784100987,0.5162272718509205,0.3412435928767569,0.3907238279381224,0.7962671728957978,0.8653737526427566,0.0027913056035301486,0.17701605937206336
48,0.6209498433048783,0.11532608526513768,0.772124455121508,0.5314973075614308,0.36257019466010765,0.4111729226837809,0.8384118378100599,0.8407095241787772,0.03402370461103868,0.3002210530572541
49,0.6628801962538619,0.12285956694977847,0.7978873343459734,0.5319572394445796,0.3977410525686779,0.4109393770377288,0.8684987789168145,0.8171749824207886,0.10416711303114545,0.37781129058165114
50,0.6907555106644592,0.13990587199851082,0.8147618475645466,0.5145116927635578,0.44075402066205854,0.4581167420524113,0.8872106001428263,0.7954378324469141,0.02787468750345305,0.47859982126260703
51,0.6919555839515413,0.1661326018967306,0.8163072749711098,0.4888267717029692,0.49029286705382047,0.4746565490662469,0.8951088169625119,0.7756060913290688,0.11544663719407819,0.5190843487953558
52,0.6652647133011744,0.20147856518471416,0.8004321093632047,0.4581850749467116,0.5419223849063483,0.5174444017619161,0.8943277370397457,0.7577180464417016,0.04676576600690956,0.6067426988452237
53,0.6166114029540053,0.2390802130670081,0.7665341520726318,0.43266396911497174,0.5855254703759858,0.5008512627891443,0.8866478873295104,0.7413991811258087,0.0,0.5917801954250761
54,0.5543072567209217,0.27917196031694425,0.7178294461661268,0.40666985706077063,0.6239633960678446,0.5020701729016944,0.8729713944186618,0.7264004729706168,0.038721970000798724,0.6067815148963557
55,0.4917559559748719,0.32526751515277696,0.6636639423006842,0.39151931210914964,0.6452912542363303,0.484901713789773,0.849708644250929,0.712641051048669,0.0086698686507696,0.5945552145292565
56,0.4290868116221638,0.37204267454732826,0.6034721349169154,0.39101711584413296,0.6388741276020713,0.48755006822353025,0.8177285849196867,0.6998701289140685,0.0029856619178944594,0.6018478062630409
57,0.36603551687080843,0.415376849834024,0.5382900647343056,0.40266761345609936,0.6061633607401098,0.489634005102757,0.7793955537495023,0.6881335533248334,0.04703278541530239,0.5806330164679269
58,0.30882661471952444,0.4568556239069662,0.4769197610321252,0.42342749943959046,0.557265851343561,0.4787541995518076,0.7337114749661293,0.6774145991986609,0.004377922580827652,0.5302426026029113
59,0.25560530806040666,0.49958878549751673,0.4155365068209509,0.4487190632800258,0.5003882549705987,0.4860282080559356,0.6813015270310256,0.6678733364365551,0.13665634615263164,0.5379190381188261
60,0.20707049320408127,0.5358220570582075,0.3541316684281181,0.4753809321765439,0.450717149308548,0.45712702015304524,0.6206162344518531,0.6596572727196116,0.11423821196095854,0.5232230232112997
61,0.1675935495851469,0.5669253075209081,0.29966614443765804,0.5004858142079588,0.4004275393041977,0.44190573859535676,0.5521114995151373,0.6526701749134354,0.32209967018354974,0.4832165937192018
62,0.15907414629901373,0.5867390484813971,0.2867393780439468,0.5238078135927347,0.36095181468958465,0.386890235461336,0.47534199533450744,0.6469323924295521,0.17212352144722778,0.39603495370485386
63,0.17116430266098168,0.5953130737971775,0.3013497106068184,0.541001046395026,0.3389005234409165,0.3477722480773879,0.39060417932618197,0.6425798197640203,0.19726321269168065,0.2938206278252974
64,0.2020435046602,0.5894829086081116,0.3405465844939085,0.547477994071732,0.3357264014651158,0.30999156839266134,0.30427401532644666,0.6396156884703719,0.08517848575104102,0.19621781208137595
65,0.24637281230429353,0.5658758440436494,0.3971424672138022,0.5405677081090767,0.35728631283213874,0.28914315813118185,0.22246370861853967,0.6381508347887664,0.011613382006013348,0.07302570088582637
66,0.29382076420261805,0.5308960659872065,0.45838542424421463,0.5209292603794535,0.38940776019553963,0.28701327506304253,0.1513864633660937,0.6380088138246477,0.10526872656409911,0.05155022191058045
67,0.3489612134605596,0.4843239945912108,0.5250568029610829,0.49317971335258876,0.42527491415231494,0.3322940359706187,0.09776340672056008,0.6389289338424023,0.1120500173991149,0.2140453641864917
68,0.3987371634103811,0.42890108823336615,0.5848665703295417,0.4603050982186574,0.4710141274415857,0.37823790132175084,0.06519023381148045,0.6406674737526292,0.2752012662350162,0.3274979419193384
69,0.44492457653450784,0.3666325705865447,0.6389219948685393,0.4266049015282775,0.5202186230495417,0.4562583522440881,0.05311990189804989,0.6428688820532831,0.26100378382863276,0.47484442995893783
70,0.4808271127127169,0.3023710621123648,0.6805535644464159,0.3981552095977446,0.5749179467667771,0.5306837394427559,0.05895675465687318,0.6451195648665822,0.20024462466251403,0.5730180882688427
71,0.49402274869803164,0.24037638297109837,0.6974647707738001,0.38690158828247345,0.63680036025643,0.5899130621940397,0.08146768166603502,0.6472065984250404,0.13549498663391857,0.6224661882038689
72,0.4695288190712799,0.18471965706348878,0.6776137989048807,0.385480731382988,0.7019836211223632,0.6369899743453641,0.11885057873796821,0.6491073833038974,0.0531267636713217,0.6848963217978754
73,0.4321784797957027,0.15518158088370468,0.6438302377770879,0.3825271230521996,0.7372888171101182,0.6270564691453382,0.1678749174328296,0.6501474471594609,0.0463942732948627,0.7297886133222518
74,0.3804992291541516,0.1495407764701722,0.5897704964017549,0.3801659297383224,0.7470161784599051,0.6155639450908911,0.22625570662626604,0.6497526069486352,0.20697440964959082,0.747634490619994
75,0.32864515235784697,0.16027609444443414,0.5285534403893363,0.37888971436783986,0.7294329593703915,0.5603064758808296,0.2908849214752759,0.6475801633156606,0.36172656989348495,0.717583620950525
76,0.2915278233900342,0.17445810813241155,0.4806754086402498,0.40362559965120337,0.6875776365488743,0.4672134355454769,0.35604566456317127,0.6436013406775364,0.3450545426345194,0.6420808093036641
77,0.25686116306241163,0.188023728321052,0.43199228691539715,0.43411859584109425,0.637838972324614,0.37891990213801047,0.417490207483167,0.6379434704627623,0.21466071997547523,0.5200727841105602
78,0.22790887593061407,0.2008163679935349,0.3881612892267883,0.4710836166167406,0.589702685848702,0.32499557236560744,0.4761557577989007,0.6307259805381985,0.16738371838284352,0.4425084364336451
79,0.19972595267113047,0.22113998043896557,0.3418351601387589,0.5165230308104415,0.5605799328499762,0.2906615275926407,0.5345958202182038,0.6219508357367567,0.047946296247924715,0.35451765682126807
80,0.1684056184164765,0.25372929386873166,0.2862882686473382,0.5713203251855353,0.5569994236929092,0.29372779884863565,0.5927147214724001,0.6117803506981331,0.19650833962841263,0.3423655749763976
81,0.15058428776282493,0.28714947461274803,0.24512291739323477,0.6299265298771788,0.5812916300453936,0.246237738543018,0.6466916556158766,0.6005047594671195,0.08652888582061481,0.21405084027067828
82,0.13776114058189384,0.31521898405982196,0.21225452556765312,0.6881454041903459,0.5955335813172312,0.20701309397239773,0.6918331207678375,0.58846539529357,0.1288213310682739,0.12710045012361912
83,0.1347574951844359,0.33708082743708634,0.20035084938443318,0.7376279912537911,0.5902190142592306,0.1657924597585552,0.7238866783218709,0.5758697534946211,0.16886086728031244,0.1166342271554912
84,0.13857613687877682,0.35180399777441873,0.20152287044834485,0.7708254296731921,0.589121912671837,0.12141797548357687,0.7394181509146698,0.5630649835530567,0.05405801047315301,0.12393943139748204
85,0.1479316265690684,0.3528627874352254,0.2154597765435475,0.7811559454313697,0.5957548069202508,0.11183323645141574,0.7389845546532775,0.5505636957886986,0.262603291560236,0.16978708987680194
86,0.1655857007258985,0.3343909797899106,0.24650862185554226,0.7688523369040177,0.6186965530802124,0.18986270898855512,0.7260557293306064,0.538887404548921,0.25369773547045515,0.23479303293354825
87,0.1875334744853523,0.30491737728023305,0.285701178906297,0.7431619342588662,0.6569814593965279,0.26642586413279035,0.7060156919639023,0.5283079352792578,0.14062165962757792,0.3238062961456965
88,0.2122468705571966,0.27465534918704443,0.32781191731693454,0.7113496301846426,0.700702899163713,0.3126857776342418,0.6821786959663007,0.5189266286348974,0.031734432784035566,0.36654119111766664
89,0.2340028162685342,0.25187881547880153,0.3642460159520682,0.6806265607931227,0.7412487932122233,0.3129218588263429,0.6560396212102886,0.5106515455089566,0.10374565092587999,0.401936895755773
90,0.2577708374443373,0.2399930118822766,0.40066716407820796,0.6594748008332753,0.7625941946006491,0.2889247254544296,0.6279005436291344,0.5032535504040696,0.004883549202857801,0.3681627934449914
91,0.27973233400486647,0.24004497561813504,0.4305504635807849,0.6509185134345232,0.7577249543668093,0.3026724502322241,0.5988202372990007,0.4963369573015753,0.0034716769496290034,0.3773110629487858
92,0.30500742167234995,0.25323827218670936,0.46198350732624827,0.6583040260053084,0.7181351970470375,0.310280623020043,0.5714719736573217,0.4894492388793014,0.0038593949310370347,0.30661304954353147
93,0.32768016055867744,0.27842402047321335,0.48747442586185463,0.6796654372574796,0.6690795823130616,0.3104132918070553,0.5473568152703471,0.48237989783207097,0.21582677598133707,0.24528088836563358
94,0.3350644785742791,0.3005366274011995,0.4961080985242048,0.7006532389012287,0.6477112155832974,0.2592706388488271,0.5281798156576599,0.4753418341531797,0.38345038478314675,0.25421564506736294
95,0.31949899261697073,0.3068437699515951,0.4791688327606683,0.7091135330934434,0.6738344644616323,0.16790678979876536,0.5160371695562674,0.46865421109091665,0.09473377042259701,0.25921790492453317
96,0.29057720344333615,0.30730814859881517,0.4455169351409728,0.7106274895279129,0.7399660623953201,0.159023872054812,0.5112002530087058,0.4624221878910162,0.05885356799597318,0.252778215869682
97,0.2590218562638812,0.3118179088816904,0.4049991093365446,0.7161824376797953,0.8150418238652862,0.16737922882843578,0.5060966752863395,0.45657819765992663,0.22594080000807482,0.20054100424361365
98,0.23335523437953395,0.3201940627878072,0.3708119240117894,0.7270755399823106,0.8682187840462865,0.11663016323048843,0.5012475867346419,0.45095109019904633,0.11047424342381158,0.15505459998851068
99,0.2195412650300492,0.34543711403539723,0.3495946734440503,0.7493949563140015,0.8546112150058883,0.16234168442841174,0.5017801134832314,0.44500512864109115,0.14230684884430364,0.09955285266185715
100,0.23523955803659538,0.3854792594618709,0.36713182103945724,0.7835392960239775,0.7690845546652572,0.23869592222822356,0.5047380498029217,0.43843810846934916,0.49166426460273477,0.030294523895869212
