Frame,Center of Mass distance,Symmetry,Grounding,Arm fold,Leg fold,Kinetic Energy,Potential energy,Bone length coherence,Torque,Center velocity
1,0.8805301427339061,0.17329465211889142,0.995680855045525,0.16278133112012746,0.8183770142116626,0.01981013803384796,0.37756104256740464,0.9999558952356985,0.005721136436275968,0.02449577561023984
2,0.885325827471764,0.1724213794936389,0.9964560945286617,0.16999499904782103,0.8218533594114025,0.01981013803384796,0.37756104256740464,0.9956529965142237,0.005721136436275968,0.02449577561023984
3,0.8923365781393764,0.16990650076699218,0.9978590465783665,0.1765374816244237,0.8246224681048646,0.029499918076867065,0.38073955347727456,0.9902929770294102,0.008426828141633005,0.03614575204919374
4,0.898049236913481,0.16697908172667467,0.9984404761907201,0.18408835072035704,0.8262118965835072,0.03099081307811587,0.38353820301372954,0.9844005747379532,0.010929408095269218,0.0240006238078448
5,0.9018702481345136,0.16422784034024068,0.9986718909618043,0.1915391508407945,0.826501053867199,0.02794139730541507,0.386999761328384,0.9757589427104054,0.029012299042916228,0.02723190368991314
6,0.9042907733424317,0.16201302880781254,0.9987904910319855,0.19728885081657188,0.8275709115018468,0.01817097515609181,0.3902472142147904,0.9695021732071288,0.032702396227645945,0.01847927636143632
7,0.9065893562830852,0.1613332007621517,0.999235964466327,0.19602658104810833,0.8293184441828586,0.005925302629821674,0.39362374720358084,0.9629715412983866,0.009457385240395978,0.0017229899878367062
8,0.9086057150473208,0.1607997736016653,0.9996250305502109,0.18974662392132652,0.8306372236820644,0.005314226661538749,0.39811779188051116,0.9565098298111474,0.004818932944264158,0.0
9,0.9109651164447976,0.15981270590105043,0.9999996332109071,0.18412037296102587,0.8313291098549198,0.0074099714734160394,0.4025845828890503,0.9506550845918712,0.019872535490662997,0.0031069861639909566
10,0.9115670934942026,0.15996488048516974,0.9998506599520208,0.18237046873218116,0.8305231656255887,0.0012302939263050742,0.4081278512666062,0.9449094224866347,0.0028997787985545497,8.780321887428623e-05
11,0.9129563804830946,0.16087002128396422,0.999836196528829,0.18724919337191018,0.8292243009986013,0.0057480029182527285,0.41560986802753364,0.938829086303324,0.0073017780119603425,0.008131048679772936
12,0.9149398443691777,0.16240871226300926,0.9999027282755135,0.19887253540617605,0.8276484458844282,0.017389466151439558,0.42499537837915247,0.9326193534076217,0.013123996991595607,0.016924223366784095
13,0.9186184746409476,0.16604395273508082,0.9998709087444908,0.22164546043010275,0.8271200524015817,0.03681964814838946,0.43659150514698064,0.9267934051107776,0.043782635230673134,0.04631772035284986
14,0.9228248934674318,0.1724358462820077,0.9999258697526228,0.26012727812442654,0.8265323011715675,0.0674462575081125,0.4514506098323559,0.9211131493290265,0.019096358755004487,0.06648684006709116
15,0.9292404261481343,0.18331857412399574,0.9999952941839504,0.3154253491736748,0.8279611791617476,0.09499474014009317,0.46872992224431065,0.9156979046957301,0.01945568303839432,0.10866167776175423
16,0.9377415528150668,0.19361246855875905,0.9996626354505118,0.38510505049296373,0.8315513464511867,0.10970719064202651,0.48614111246271197,0.9133010536989001,0.04069834473689748,0.10596503109085714
17,0.9468422317338264,0.2073027053056017,0.9995512670919305,0.45939146100256234,0.8304141636025131,0.13861715725903956,0.5029455091423713,0.9137766086321393,0.028710410415104914,0.16479774005673997
18,0.9539806998533906,0.21646138421311212,0.9984390298483985,0.5334838634608486,0.8210855530395362,0.156810589015049,0.5174970600520917,0.9165437058846269,0.09747282257038499,0.2147435022041672
19,0.9528699227489874,0.22179123044782942,0.9939249954699114,0.5933245608261049,0.7934086703989728,0.1937715056207292,0.5308244832399077,0.919185482848249,0.01586228144431588,0.2918211110489748
20,0.9372314822672374,0.22378533962066485,0.9872776061704797,0.6311580881305617,0.7518381581475173,0.1979304692574724,0.5444570750787769,0.9207979185498847,0.13103913372013726,0.2966946749127877
21,0.9147775682935548,0.22616578609897048,0.9785098790309814,0.6550308573544641,0.6947682932874946,0.24854937260127566,0.5612975636600406,0.9175619009636262,0.09280310280734955,0.34271503212852444
22,0.889097867516077,0.23451102339600274,0.9680340216124017,0.6753478000150117,0.6421370356011078,0.29100271872151484,0.5851035795672631,0.9072002174236303,0.0364255033221531,0.3697897493802331
23,0.8621384621804117,0.24812702484728855,0.9553958824264978,0.6993958661928411,0.6118902914250253,0.3113585923928023,0.6169655682553522,0.8887270028844038,0.11880676271884295,0.3312599352409214
24,0.8391306539268701,0.2598073070844452,0.9454363692159047,0.7279319653528983,0.6070656539235183,0.26947009933424937,0.6560930318020914,0.8624218342609913,0.29207309953424604,0.2818999755576745
25,0.8198193663910144,0.25937101149068426,0.9384649992369518,0.7488525702925578,0.6246911175697354,0.18152224412217344,0.6931972387833507,0.8319160672755853,0.24830416999424335,0.19231577954169712
26,0.8117226745822825,0.24749603353781627,0.9369333227208307,0.7537006238838633,0.6643305757047908,0.09580016638453002,0.7161775562474265,0.8037110494315057,0.004622910054469336,0.03653675523118967
27,0.8177695920333039,0.23325190208133303,0.9430079604618264,0.7488963559014699,0.7024614942694721,0.11114026168847671,0.7230525266919609,0.7807275781382595,0.05346271123952779,0.09619524907722926
28,0.8349225399768689,0.2198771718500207,0.9526999003433478,0.7378837035612801,0.7313734289091633,0.1409433280570123,0.7208711471111722,0.7622708892834905,0.009029639658927755,0.1954461271576556
29,0.8564124938483348,0.2077485867307548,0.9624540329446051,0.7168413064515129,0.750532682326559,0.1566679309903925,0.71679287945073,0.7473265720335517,0.019475818314478803,0.23723997294807384
30,0.883380343545243,0.19504748007316347,0.9728691439857706,0.6812186805886975,0.756796421428704,0.18084818587045032,0.7122477669205699,0.7352027027402697,0.04422243796343532,0.2734121761625497
31,0.9159155325794857,0.1811522776943333,0.9825755472904878,0.6291801960668182,0.7552947774454962,0.21123750426612953,0.7051809172035566,0.725659174600105,0.03545550554811604,0.292170472408223
32,0.9490247237325731,0.1685282146212134,0.9902990152754683,0.5638461590360069,0.757630916884615,0.23530759008306068,0.6951459123672094,0.7190923933613282,0.03326824084487607,0.30969476338802954
33,0.97993485126586,0.16244212958255133,0.9944558031010899,0.5030786810549166,0.7553112977992847,0.25707741935787787,0.682060661457837,0.7148394111063272,0.040085698554758555,0.35333867515965145
34,0.9638394305328336,0.17031505947499184,0.9930528510513851,0.4613940789028979,0.7500953712952153,0.2763380631529048,0.6698916172653293,0.7116813387666019,0.049029407073323185,0.35403550013745416
35,0.9101833250398838,0.1962350838784982,0.9833102891886845,0.4521679833786604,0.7355619779904311,0.288217693825143,0.6644751558212688,0.707828169017778,0.05348922585148618,0.30634426726864145
36,0.8502737884661522,0.2366579992327497,0.9646524732699168,0.4680253758035562,0.7082616105450351,0.3051707446945485,0.662586397516183,0.7030648049474676,0.03311453160479135,0.26658356105453146
37,0.7967101721083424,0.2814548268396858,0.9427027822324578,0.5037595785581461,0.6771645133022766,0.29108198608337177,0.6579126598089334,0.6973320706219244,0.10400479710858708,0.22226500466485832
38,0.7568562494113337,0.3247077365331166,0.9235546562674519,0.5564481525798426,0.6588920120775813,0.2574641165392172,0.6495165347687569,0.6903427125120747,0.23278449363640702,0.16464159283029717
39,0.7354388326881083,0.3562200284312672,0.9129254865630291,0.5929038413617082,0.6445026480625058,0.1888684466048271,0.6334314376152427,0.6837343551686716,0.29102093624614633,0.09324323568028504
40,0.7285304984469967,0.3658347297602322,0.9104305460622623,0.5991953117885926,0.6323001809186077,0.10311681643256926,0.6092106443235302,0.679345175393645,0.025358731397725716,0.10858564691237962
41,0.7393318268070199,0.35793611875978865,0.9172442647284113,0.5869367292683493,0.6384434445655643,0.12278539556243728,0.591033631422551,0.6766880984856781,0.06106637040732946,0.13557302589660047
42,0.7592616521180723,0.3419540945087881,0.9282841956515097,0.5747263748764891,0.6600740286233572,0.14004639701932178,0.5863806333834094,0.6749249802668046,0.15436464117925763,0.14749865043788613
43,0.7780712342178759,0.32968325532828746,0.937413508370834,0.5721897124342784,0.6799774488363185,0.08803605953015467,0.5867402057789524,0.6739476491477192,0.13530972601781835,0.07681853686258673
44,0.7899430171904999,0.3247389906789907,0.9425841821622767,0.5781421546884811,0.6901356232537887,0.04631203696638973,0.5875448330664412,0.6733292898972173,0.04237451695038377,0.04860458818062093
45,0.7968161727643537,0.3221690709201904,0.9454493862967789,0.5919898040993055,0.6871582722898376,0.04291539385561265,0.5874134073518508,0.6731171756894845,0.015145935963434462,0.07119070324464846
46,0.805993118440847,0.3189385015447184,0.949785520569992,0.6151289918038775,0.6816413220699373,0.06539188495234102,0.579927323363567,0.6735127387542508,0.028751655302105186,0.08957308280310079
47,0.8122842949047132,0.31817226938667875,0.95089775781352,0.6429702869289239,0.6729802871889013,0.08104246651199076,0.5674180583516641,0.6737499832204396,0.004957454734232031,0.09227258452593252
48,0.8213666712413565,0.3108827998731291,0.9522645513052455,0.6643221440522912,0.6718127488050554,0.08896007538699045,0.5568689753017878,0.6726157734594026,0.18713287147101682,0.10053857460820703
49,0.8296539375350941,0.2896470682693121,0.9552657116177599,0.6609313787808216,0.6690681150949452,0.15880264359420102,0.5415228471004825,0.6717967507157472,0.16826328144577254,0.1537044945857058
50,0.8480775754181323,0.2591396796402145,0.9632625383010821,0.6424282063366984,0.6690379566829505,0.2168590891741329,0.5220222315289464,0.6720973891622174,0.1501365105046537,0.1953791186433885
51,0.8591666817666526,0.2379250939975326,0.9691187783518678,0.6229697856877734,0.677950902365158,0.17584123018225672,0.5090053423012663,0.6730999252476202,0.1901248910246802,0.1504689202767447
52,0.8507306744942547,0.2325816471425678,0.9698506275654253,0.6123676672631528,0.6942184991293673,0.1061540943553799,0.5067169168757676,0.6739582655020561,0.08296551627809363,0.08540782135198909
53,0.8377454496098709,0.23521979547566796,0.9678778166419195,0.6134402952730424,0.6914989027613111,0.06271182230045397,0.5130061083872628,0.673760211898459,0.16851761091196382,0.02498767597664099
54,0.8316516597741024,0.23435481468169808,0.9648376050867825,0.616395211904619,0.6774811733391123,0.019041503273147072,0.5176737123243985,0.6739453624708215,0.14957807333100326,0.0032740188166306985
55,0.8395413314005589,0.2272246187203499,0.9672472113907123,0.6093333246237718,0.6772984759371254,0.06728802548312365,0.5162712123976481,0.674777673180905,0.1352195875289489,0.04559683611540543
56,0.8459593932298288,0.22764635715326786,0.9699735666625633,0.6050814447959848,0.688206268051987,0.02687780087763446,0.5160251377269227,0.6751435622148353,0.017979404324100858,0.020369577855171184
57,0.8462154287798357,0.23396831129276927,0.9710178258170852,0.6112771995445062,0.69768718855354,0.03827390405604317,0.5192200174066758,0.6750347372066259,0.004168240589616598,0.013784026895999581
58,0.8533792317085356,0.23566510519329378,0.972533592567697,0.6163444350989802,0.699746217487828,0.052573761804143734,0.5226901969452248,0.6752035332502339,0.20724129173413336,0.07777701883948004
59,0.8767137847864573,0.23438152732413892,0.9776738931704344,0.6185356961480075,0.7158845490505262,0.136489863855083,0.5263674269417977,0.6760782545510291,0.02518658801835455,0.17858210924638193
60,0.9001654744066311,0.23965619936313412,0.9822920641959069,0.6301100021788907,0.7398676183752084,0.17216427387650624,0.5345845013943472,0.6770896941025941,0.016306882470712335,0.2446629427470717
61,0.9046422430188855,0.2557997151082167,0.9813562807153312,0.659146033429972,0.7503542183857623,0.1903084941676202,0.5488975689373754,0.6780719579434961,0.07612399576081796,0.22549162505522416
62,0.9106437019824114,0.2727122369102921,0.9806707144559921,0.6981362521970835,0.7495881433503512,0.23446279636275488,0.5627468384893581,0.6787600333448987,0.08385282225067009,0.27369627606793595
63,0.9307119087719679,0.2665807761266736,0.9817554711954541,0.7122597040322731,0.751554413863716,0.1854717179301172,0.5650408131795794,0.6805353329946909,0.4154353732086508,0.2307918059319969
64,0.9162437121511495,0.25236649996789784,0.9798679944687894,0.71442681093053,0.7672501809157446,0.3069314490508467,0.5527930799056434,0.6843298583752468,0.02251783629201638,0.352117658700272
65,0.8985920554509741,0.24060635829692498,0.9778214200869991,0.7300829325485682,0.8033411327279759,0.32854005116990515,0.5416485528084974,0.6882232789007902,0.005683068416941625,0.40882786852042013
66,0.8487041750660361,0.23494471835419292,0.9653380395292558,0.744220620180667,0.8395920725746363,0.34271327098708443,0.5528007264318104,0.6898225793513031,0.2274500657723351,0.3888996988492733
67,0.8061595467862386,0.21889143735636732,0.9500154889987587,0.7335348414352474,0.8704163962387569,0.2671011037981131,0.5857484004261783,0.6895657086125048,0.5630817344456206,0.31083214720352176
68,0.7918429188542566,0.21936056655458205,0.9412390838053388,0.7180126119961744,0.8934577521070016,0.07164436527602128,0.6150303120265076,0.6891805304778864,0.021261672612921063,0.055066720836486914
69,0.8031147920182601,0.22622228474441766,0.9466512967641005,0.7078032827475995,0.8880962730407356,0.08609802617653858,0.6235745302789979,0.6893164180467489,0.06015738869580626,0.1137916063558978
70,0.8214065088963273,0.23516023372439218,0.9539350766840179,0.704947116678779,0.8501892238900618,0.12091513192270552,0.6175793047669473,0.6898090199169238,0.05202389720871377,0.10699293092211429
71,0.8444921879295096,0.24647640234771961,0.96138663231297,0.7124219331359162,0.7956096345516314,0.14103429040065307,0.6089950355331829,0.6901055926240317,0.011227249852187829,0.1518750736463301
72,0.8718214119002192,0.25402640858755804,0.9692489491606017,0.7195519233554916,0.7462329041857957,0.15441870801840094,0.6040889310388222,0.6899304542129918,0.0767476973988275,0.1821272391000775
73,0.892898134783803,0.2563561105808553,0.9734534662827634,0.7182060302839172,0.7195067087948009,0.1260998907679102,0.6036563533226197,0.6897181672456706,0.005293713930312244,0.17291740918924994
74,0.9101623643565323,0.25532886897633367,0.9762854045439214,0.6993937730614067,0.6888085345334942,0.14398224474190652,0.6069429803446497,0.689724168551067,0.054899508685273754,0.19234887365508807
75,0.9255401659287102,0.2483381865009252,0.979169411128572,0.662350534068722,0.6735596679698821,0.12820075942130377,0.6149804770588558,0.6898820913816751,0.005424194463882117,0.17477120964462875
76,0.9449979420674858,0.24091371100612335,0.9817236516644315,0.6160095647198879,0.6777660984314238,0.13258357446404279,0.6265845311155076,0.6908676677576625,0.07676345766518433,0.15447163144112622
77,0.9712081324651634,0.22789666198714878,0.9863924446710791,0.5935648155908936,0.6993367828486636,0.17253961216640554,0.6339134113005518,0.6927439348975113,0.1393785791947135,0.192856548653078
78,0.9892901080135401,0.20950719219445235,0.9915284062468599,0.5655297426840891,0.7289706174089631,0.12646040666903416,0.6325177223499365,0.6943504487895197,0.03266802414842572,0.11349146675133728
79,0.996268284347205,0.19332218927710312,0.995369891446878,0.5084684969665321,0.7364178472355272,0.12128862536358348,0.6246354155343244,0.6948285808010944,0.008259440335795275,0.11049871893491016
80,0.9935568849019687,0.1907761842928873,0.9946293641794031,0.4553468459020683,0.7141824317594857,0.1080114507263764,0.610151140488508,0.6940235214422721,0.048318799772963855,0.017086294459881062
81,0.9754125064051857,0.19404397046260846,0.9886704338239536,0.421938156165014,0.6739154617664996,0.12565886673504303,0.589044124427757,0.6926350041506277,0.16297952086010387,0.15322796096983005
82,0.9353732496050875,0.2100030208699121,0.9785026473193815,0.41081702644320284,0.6150043809366381,0.1625949964997884,0.5671416078427168,0.6899418940749642,0.24730980382269968,0.1434839123310683
83,0.8761408921629051,0.23700728346049174,0.9584462183778657,0.43121569587971104,0.5169854287110144,0.24339122687942114,0.5483201695581179,0.6856020110699876,0.2776453324672449,0.12619275315451955
84,0.8090886310109343,0.27925186628817167,0.9251528645302574,0.4920910203839961,0.39425071897728303,0.34655516742957465,0.5326640288765193,0.6787273755571258,0.26731208613441276,0.16473594554141352
85,0.7425076063053244,0.3495463507026159,0.8805925040154273,0.5953632851658248,0.267730685149001,0.4558169194787549,0.5259654700038144,0.668517851283895,0.0970116779380713,0.15346524690362473
86,0.6761824033011449,0.4434819609461549,0.8276795166067272,0.7063877012784712,0.1441422569281326,0.4977568978586483,0.5319882251612597,0.6553074085879579,0.2122710865366754,0.040063084669431336
87,0.6291806733326201,0.530408865567444,0.7808079010656785,0.7819005124410481,0.05382693786102264,0.4398923614136925,0.5465558869927842,0.6395836955365318,0.6552085414926825,0.010502161092682956
88,0.6202621231132874,0.5728815943731931,0.7635342347464631,0.7980383038408368,0.001176218683651,0.2557715160701852,0.5574135272219118,0.6224687027714882,0.17243561486889092,0.09196625319867838
89,0.6435501766682442,0.5537556443554668,0.7786412802713895,0.7685109926942284,0.01310765128944793,0.1443301145680626,0.5471889164078225,0.6071012310867099,0.8096578967812058,0.07350928234688024
90,0.703315975430956,0.4846705614649544,0.827892128927663,0.7304912061562534,0.09758033413461556,0.402083878184079,0.5161248122568628,0.5960073199529343,0.46632587065417774,0.12004841052026093
91,0.7888860226873409,0.38500679590400533,0.8898389704626113,0.6916498645406643,0.23033370292183783,0.5614653472242934,0.47872102289489,0.5907492438758143,0.15402311927527107,0.19277632300662678
92,0.865610528859029,0.29293999875224613,0.9361913491110383,0.640935105817941,0.37664057608558404,0.530466925825628,0.44790383950107376,0.5906446699457083,0.41208607468352,0.21521585592065906
93,0.9428929358060676,0.22695237264398346,0.9678329800300226,0.5750253734687178,0.5164123715136019,0.4103126372829565,0.4356215938253257,0.5933834144489513,0.6445586432953943,0.17047816327886467
94,0.9776774439047026,0.1985681625914151,0.9825813326597661,0.532357452608975,0.583533100063766,0.19973838781854308,0.43564502111413184,0.5969555317730255,0.35881620783768925,0.04960375896653285
95,0.9675382397134936,0.19176266411181173,0.9841260262567614,0.5224911988519605,0.5916250837046068,0.07679484575244236,0.4314281683251957,0.6004635901448464,0.23539065289965774,0.009669819946548443
96,0.9360135601928394,0.20703191531096035,0.976289743570878,0.5437369469783708,0.5486275275159277,0.150630627070971,0.41823412343330757,0.6033924837926475,0.30986192913986715,0.009353853284734214
97,0.887637462408528,0.243514385894142,0.9603828707433881,0.5861252239499039,0.4819211135462566,0.26455840470367664,0.4019375415003251,0.6049759212199632,0.19695141224828902,0.04778769421078159
98,0.826653444507704,0.29416853074261684,0.9355752072830228,0.6470685480473971,0.39654230912679717,0.3388897666831961,0.3965500969086944,0.6043512235154022,0.2828687640855483,0.08247712172313687
99,0.753600151861408,0.37232855016119965,0.8946495050165535,0.7207812909053067,0.2897070852218972,0.4416838036914229,0.41612464090939244,0.6006997980760288,0.28926668793339283,0.14485494366704327
100,0.6687790621848677,0.4763214410784187,0.8315614993916854,0.7853180242144385,0.17978785271236633,0.5388866798455034,0.4496425262559294,0.5939826895095112,0.12220870422320512,0.2241401681917317
