Frame,Center of Mass distance,Symmetry,Grounding,Arm fold,Leg fold,Kinetic Energy,Potential energy,Bone length coherence,Torque,Center velocity
1,0.44556409377764505,0.4991275789980448,0.7861638255005391,0.8523925307737478,0.7859809182700692,0.0532628947129332,0.6690587546006992,0.675215146132437,0.02362868440038879,0.049571875920394165
2,0.43700100170530226,0.504291792354327,0.7776221383311647,0.8521331581477969,0.7830488837572487,0.0532628947129332,0.6690587546006992,0.6757472668879515,0.02362868440038879,0.049571875920394165
3,0.42798981777320577,0.5093286358277045,0.7682661698298964,0.8515286004240606,0.7803719473223958,0.05262928215616641,0.6715806716343985,0.6757021225537677,0.03172312990126658,0.04218991512914863
4,0.42324212316338966,0.5147480441847865,0.763103543517506,0.8515178470142186,0.7783821604365677,0.037719220160918235,0.6729314204278383,0.6766959189177062,0.013781969571235666,0.05026059406321787
5,0.41666139254199874,0.5199122415452732,0.7559444812492488,0.8518755178732086,0.7759052732542974,0.038193711763806024,0.6732387181529713,0.6798472897483859,0.028362874553816676,0.040390774621063136
6,0.406585905583068,0.5252899051770985,0.7460036355476577,0.8528852149753214,0.7743747271148799,0.06955896287986206,0.6747256860970816,0.6810599052548415,0.07095537258496429,0.055244984945166546
7,0.40062738140816406,0.5299113972992584,0.7402726656660498,0.8536547778023944,0.7740098856977118,0.03850185893018634,0.6763951920038462,0.6822068039190957,0.028193025596727053,0.045677337780104965
8,0.39546172328251966,0.5340124460995287,0.7347504328771418,0.8543876103819498,0.7718001151557758,0.029282610909024783,0.6770644128496035,0.6844913253266138,0.013737580694675275,0.034871950503999355
9,0.3895425929168076,0.537664604306837,0.7282671827802827,0.8551468573474503,0.7700039710323257,0.03191649353363698,0.6780427436457904,0.6876916450487891,0.017381796877565643,0.027553849094839197
10,0.3847203048287268,0.5421365950021662,0.7232326921089555,0.8556831393936735,0.7695471709952281,0.028317249460886963,0.67898797513809,0.691851763812894,0.030816482933436355,0.03331457270977043
11,0.38084295006704405,0.5451370073118018,0.7187231442251971,0.855756916861325,0.7682716238284625,0.01867775547202324,0.679383860215606,0.6963648571404463,0.006276171199736172,0.0236378648543859
12,0.3760709586381745,0.5480605112623803,0.7137382544471853,0.8553233652620849,0.7689314793949308,0.028938590081867076,0.6795914707311963,0.7021685364255835,0.025477027001238214,0.03168030321873101
13,0.37157964446200736,0.5506609954984198,0.7086210956203326,0.8548312731713359,0.7675058187438071,0.021296013122215643,0.679816530893584,0.7088210114424413,0.019942935184258978,0.01889803402350918
14,0.36809239759433565,0.5524165287866022,0.7045930897424942,0.85486752370822,0.7659298363995505,0.014863005330041954,0.6803927764670128,0.7159558617896273,0.03010524887118042,0.012156251006970742
15,0.36656581378835584,0.5529033778280658,0.7026503880877149,0.854585386113703,0.7655452210977522,0.0056136002861221,0.680666983140728,0.7236216191095672,0.023552982769558767,0.007386638149441181
16,0.3656004150831246,0.5532969227453901,0.7013442312304565,0.8544751436733179,0.7644006998922099,0.0,0.6804584912273095,0.7320039607153374,0.038404665736318414,0.005179514586138389
17,0.3669108801060325,0.5492042256179358,0.7017865058624997,0.8540432897624888,0.7623650828336382,0.03314635538468804,0.6825851314419484,0.7395242424708434,0.09548444711700182,0.0330501258326205
18,0.37184341828141476,0.539031229155729,0.7061203839157741,0.8523851799013723,0.7602390858232216,0.0919830910199558,0.6896130547280689,0.7459228660529292,0.12320288286250802,0.09413743864948733
19,0.38566245942298844,0.5240016468108168,0.720155370019624,0.8496053827076598,0.7589173133549034,0.16020894878121983,0.7000239636904957,0.7512781238506804,0.2215405268563346,0.15978573832623982
20,0.41603105736744356,0.4996239834294641,0.7517263386137103,0.8458485445890542,0.7615329877208051,0.2734344727611169,0.7099316410432835,0.7553590421991527,0.11335270156217567,0.24784629244613843
21,0.44040577315342627,0.4806399925157271,0.7756319024869588,0.8415819022088394,0.7631502660676183,0.22411005122148187,0.7178983206362393,0.7581748970354923,0.018870751838241617,0.19862623902228022
22,0.46929174131434204,0.4565630879367304,0.8031686650915401,0.837818589159649,0.7664098451835845,0.25291861575688784,0.7236832341404302,0.7606687240948108,0.06053555258402268,0.21969321058537983
23,0.5040467581140394,0.42705731738729663,0.8345804974862417,0.8356974315220167,0.767026584642353,0.30220771299538535,0.7265168381568106,0.762772221361878,0.10280140984467655,0.25807602472788105
24,0.5338620604246493,0.39203068349889414,0.8618134546192758,0.8321232762351551,0.7722959054189994,0.2719044127979449,0.727089144826765,0.7653263434304352,0.06553589166993817,0.2354541672021407
25,0.5610585324000357,0.36291243833236203,0.8832658409773924,0.8283889228872947,0.7713876653327619,0.23980239557256483,0.7271676903811058,0.7664678690710137,0.2443137308272202,0.20377068378465846
26,0.5737713120665817,0.3365384297383392,0.8931364187467911,0.8127509922987946,0.7669982240847532,0.14779986720164268,0.7250025446855354,0.7678437635653484,0.05826366068361277,0.1368954324433944
27,0.5640290157306422,0.32384911697220303,0.8860414242990597,0.7854174038721572,0.7539214075599374,0.10852062740896185,0.716294070654777,0.7730125478984953,0.34807808228445936,0.058785800764958276
28,0.5330462439553445,0.33486463037191966,0.86009602368829,0.7554966029027654,0.7347811636623792,0.27481543069690956,0.7021988157030018,0.7827238699036846,0.3202319670553314,0.24860652006029701
29,0.48038031987659674,0.37181007401265737,0.809250974634116,0.7350543729337178,0.7008629951097153,0.4599694163933514,0.6896788863763673,0.7946280441242944,0.022278113914620305,0.3867068030175644
30,0.4192943311213019,0.42038902976292825,0.7412440164934395,0.7185257669715202,0.6572442339439304,0.4986747808825437,0.685609887475338,0.8037172461708838,0.01711204677071809,0.3194057111135058
31,0.3487368442163943,0.47526247168636304,0.6563872215533747,0.704467528430843,0.604854115094067,0.5215365240354577,0.6955130654211527,0.8039666919144706,0.08725748171106698,0.24340043626959107
32,0.28557917475113703,0.534170675402646,0.5741902745172472,0.7077742451257578,0.5542214058109596,0.46867201840093853,0.7153139819319746,0.7942534926823269,0.0071387752773152775,0.1595944817461067
33,0.23335896048073557,0.600963533714915,0.5025190503830393,0.7327429527087271,0.510521327722843,0.4634107532012064,0.725479302690951,0.7804166486107442,0.3349663214313074,0.22754617068226718
34,0.2043552673067727,0.6460730206976509,0.4607943655868901,0.7638004114760547,0.47538427057512145,0.32947761160661887,0.716254379152275,0.7668625824820565,0.4786948196052047,0.10520087198241514
35,0.19281071298826555,0.6551097204778681,0.4438267266658771,0.7745453651698596,0.45519401536033294,0.13357622543607095,0.703686086158547,0.7523197852346619,0.010236287257632256,0.06824047477906556
36,0.21165397658535395,0.6360700914129717,0.46931331901349277,0.7746024603197672,0.45550412744917584,0.16482636408341125,0.6958576985145261,0.7394845806320757,0.15958693959043677,0.1610188060168909
37,0.24297360985015512,0.6102601601687259,0.5106659971097912,0.7776627856424816,0.46838891298527696,0.22985741862839362,0.6851017959249298,0.7322312645313648,0.03251212922285904,0.18989814629092344
38,0.27638921237024094,0.5873287986086021,0.5506422504166332,0.7908057824297321,0.47571741640864007,0.25064606560210584,0.6705697008358531,0.73155782415994,0.038212125575297955,0.18298880753613508
39,0.3079923259834322,0.5588756367506975,0.585931219305344,0.811565924392909,0.47568671620612685,0.30163128987030335,0.6575569341892027,0.7338209460831058,0.3758010711465231,0.28581364014209754
40,0.3658958055855812,0.5054445493323464,0.6480170708067123,0.822086990851124,0.47988724549237377,0.48276534666003684,0.6473198597732255,0.7347900802466799,0.07563176232661538,0.3440795263031433
41,0.4126398765661645,0.4455605047143171,0.700600217830755,0.8132057641880922,0.5013511190763815,0.4238534514748661,0.6427901232880501,0.7337274552453054,0.08933489573249298,0.22446408945256535
42,0.44881877846185714,0.36890291936591485,0.740342933598248,0.7845300198956469,0.5221769030372092,0.47445961340020587,0.6437070481209154,0.7311944711098395,0.05822450622303336,0.21143625248212958
43,0.46280278422498927,0.30288067327340146,0.7567504957655931,0.7481316504269849,0.5375826680300825,0.46746979475459055,0.6337841047835691,0.7340858443527726,0.28721150548882673,0.23180829526204225
44,0.4689921587559903,0.2597344627012726,0.7677970280473037,0.7237017183711496,0.5550733146857781,0.3597672053715025,0.6141679843864889,0.741039537431015,0.4754142944765069,0.20825648547959763
45,0.46792197969953125,0.24098234874111085,0.7744249474163254,0.7127852861048236,0.5787798715007121,0.1780924801371652,0.6038267351532691,0.7472224309494311,0.0986868808157232,0.1263373830978036
46,0.4599117228019884,0.2281380954980578,0.7743836133385655,0.7055652649704269,0.593724070057694,0.12260605078437968,0.6008018564247635,0.7548969517839333,0.049415097336276456,0.10405800815109507
47,0.4591324093747965,0.21754074878351054,0.7749519569077831,0.7026359176055779,0.5974363474484403,0.095096819207842,0.5939176135685343,0.7680418347137073,0.05424142652858095,0.0791994399140175
48,0.46065782825143786,0.2114507497863774,0.7766879881737572,0.6969782974018621,0.5963854527013435,0.07669464126378832,0.5890180376793185,0.7833382777604276,0.033163012490074764,0.07402183599915732
49,0.4611112169094326,0.2133288616447687,0.7778164084966427,0.6970811292089121,0.6062487683735654,0.053685707203998616,0.5908607193744823,0.7971933675785108,0.029197266600297603,0.059278021203265155
50,0.4528518274057567,0.2223023625742647,0.7711740222003989,0.6991840832010778,0.6124343118318613,0.0825802279621312,0.5939389703371087,0.8091255301789902,0.005927075871823904,0.06090774381146946
51,0.44343882251643013,0.23261989520473728,0.7620329909034913,0.6991791267560262,0.614417383257286,0.10848496740075925,0.5923778302266964,0.822096612670346,0.06672781022495843,0.06450889340968874
52,0.44555523581382833,0.2339198589541612,0.7656807232659234,0.6972729749223396,0.6197634438277408,0.08135439377357435,0.5908882541315016,0.8359641835531465,0.03413421668583615,0.08846025164140262
53,0.45545647065343,0.23476143125524798,0.7785500883769056,0.7010777506486745,0.638618351195155,0.07481684850169652,0.592365646052066,0.8496746712710308,0.02436926322099874,0.09455801730423993
54,0.46729216466611023,0.23631147320454485,0.7925664741457615,0.7042934916358413,0.657268812067079,0.06925808155295088,0.5900078153867153,0.8630271651951683,0.1044507564690584,0.06784223867086414
55,0.48485316325220307,0.23874353891197383,0.8105095973019478,0.6997014415226102,0.672624060756011,0.1328156792826375,0.5825293776813549,0.8791367357573199,0.19500444415695836,0.1316451710344954
56,0.5118033008091835,0.24614106745822417,0.8332350732551066,0.695274464940787,0.6848213074634144,0.25817235539924865,0.579486928293855,0.8980514088674,0.21776647745485025,0.3164393836994162
57,0.5511003525437516,0.257924068598659,0.8610715079234573,0.7049449578241731,0.6901556268606427,0.39851217379354187,0.5889615126165072,0.916677132803726,0.1625371011314522,0.44530249338399336
58,0.582793017559935,0.28742245059992266,0.8769913279732274,0.7392835558646595,0.6797428550854613,0.5190486935156767,0.6075850384327796,0.9315488461959172,0.056146111525019464,0.46547226704557276
59,0.5870770828456647,0.3275653852441586,0.8734779313635136,0.7883568710049192,0.6480343298304442,0.47278046143676705,0.6280081199331705,0.9427760007441952,0.006548171497114816,0.2644994213010112
60,0.608716596931405,0.3622665684794974,0.8838135175077271,0.8251765512230711,0.62089841839962,0.5221592667043042,0.6338023998461146,0.9518264840299994,0.44788438748722403,0.3811078839944524
61,0.6374110143943491,0.3634342274819502,0.9064335915626002,0.8396007879344876,0.6234804527618322,0.29928092104974824,0.6219750021111312,0.9608211969801007,0.38188035922599184,0.21053867601170492
62,0.7055634371566761,0.323128062975697,0.9570575033007583,0.847647726799842,0.6645086018832731,0.4626588228782461,0.6151552125937744,0.9665724998041761,0.26318805274337553,0.3478865058621104
63,0.7580004322990913,0.28690849604110297,0.9930925522930596,0.8458086122516989,0.7227764914529496,0.3351639148547945,0.6227913724486323,0.9708008653766228,0.4493245092400925,0.2538969019826752
64,0.7868498970201919,0.27862896862527814,0.9886098715598448,0.8349366841695417,0.7640783213674271,0.1546019142960506,0.6300501875225775,0.9764582187026727,0.09893371250696235,0.09551543122026705
65,0.7822017196462702,0.29320551372358844,0.9892691501001377,0.8265007608311451,0.7842497272974621,0.11585041528157697,0.6341203421661388,0.9822661640671093,0.020423417895979654,0.1056215877432915
66,0.799673421219877,0.293259551455388,0.9811304701889412,0.8197245333226192,0.800747299084665,0.10233944567479993,0.6357543710638593,0.9877965420782066,0.007739756523906211,0.05437695660977682
67,0.8114374026638592,0.2858848504764329,0.9770197961555772,0.8181878557109703,0.7983577089600795,0.08613753796934819,0.6333727201277389,0.9927689150701047,0.09136731056511832,0.08221214981084515
68,0.8064698358775778,0.2840638698063052,0.9822526904001601,0.8235508496754456,0.7745629524577461,0.06326722142369724,0.6341299451581576,0.9966156863360816,0.04321208232838641,0.10335048071546411
69,0.7868769442725708,0.29195881925062317,0.9953452595310528,0.8339539708175844,0.7332824911968769,0.11455162383113704,0.6383894254399669,0.9990970508254552,0.04437129114496952,0.12282785675758022
70,0.7740025198628067,0.29894909536165126,0.991288319798782,0.8435507688487913,0.6856627620545013,0.1024454970568092,0.6434388993955679,0.999899643902949,0.013554192184027857,0.12366628772817495
71,0.7606329011804895,0.30555203942106207,0.9750274936074824,0.8519877803443913,0.6405100083200391,0.13019219330749962,0.6522303686688318,0.9979177213702315,0.060335876985800535,0.15773195198537382
72,0.7417073424899019,0.31845113919832774,0.9583450598230226,0.8584522686591699,0.6096320557302313,0.14780746459806982,0.6669985478459264,0.9926287800182334,0.0566155332163148,0.1263801863732734
73,0.7163263574356212,0.32651415000927564,0.9415716910674818,0.8597754698722794,0.5956644139352294,0.19893960363395363,0.6826892240478337,0.9856706198849783,0.014710756770738782,0.18178251832075878
74,0.6941033315288521,0.3237570979846519,0.9317610477108371,0.8532547181989124,0.5961309490374408,0.20247720397535712,0.6928354286589457,0.9791315654215631,0.059466624263363146,0.18297403010604182
75,0.6705107563118412,0.3230194991349634,0.9210513881628839,0.841928255116043,0.6032494605050697,0.24280817326680315,0.6970848425040014,0.9735979462487552,0.006398630317589216,0.23748105696490537
76,0.6455086717374202,0.32530864098806056,0.9084196939990283,0.8314640334995393,0.6121674064182278,0.2542074750697833,0.6996447229765995,0.9688827248851958,0.05875254082492626,0.27804302414655435
77,0.615311413587205,0.33195516924828633,0.8925660084736846,0.8234521222078145,0.6221167106951726,0.3000974671963907,0.7011260717726391,0.9651487227420756,0.010358579484611998,0.32565451147886165
78,0.5853089500974993,0.344191712453401,0.876753657026095,0.8178811774427498,0.6325653861636472,0.3018888901939157,0.6995503520030439,0.9624438733741052,0.005832527706177829,0.3346801180416524
79,0.5545124699345423,0.35984838044869255,0.8588560013554521,0.8145172911822797,0.6404635113626134,0.296355542875348,0.6948392840690234,0.9607126227618344,0.08818678302031084,0.2985016196076779
80,0.5285221676070991,0.3769022431369656,0.8427150439896662,0.8108333187540926,0.6487179378434526,0.2481606395973651,0.690167963414866,0.9597221650912746,0.029800835051578163,0.2172494967040839
81,0.5048522657781263,0.39762932129104706,0.826431484055601,0.802698982440666,0.6572219610146254,0.24207006541793058,0.6854035910662516,0.9604629153979075,0.1954694134641094,0.20967478426848585
82,0.4924183125498794,0.4119423227028638,0.8182618035860773,0.7830225299447926,0.663532519875556,0.1799204350547889,0.6773490454296529,0.9638515525150341,0.07208499342473366,0.16489356622058796
83,0.488062123794817,0.4170287519684491,0.8124750326994931,0.7548769232596684,0.6630292936030405,0.17457726106672888,0.6678580360630652,0.9698953938452587,0.18434950577488304,0.16827668951292152
84,0.5123779000893579,0.39502799551728773,0.8336794145910444,0.7392348495266743,0.6674437274622912,0.2601450047396829,0.6605371178119409,0.9744560967823765,0.20941474166139398,0.22017140867302679
85,0.5512518939383217,0.36526006692022744,0.8648949101163792,0.7072466333523824,0.6749857212704904,0.37718362815003154,0.6492129997765747,0.9766168530770303,0.10677850091432695,0.2558793792067269
86,0.5915750182448021,0.33141853665641696,0.8917248599912412,0.6626831234770947,0.6685744697917464,0.44226234777083145,0.6266172838392718,0.9768371736982777,0.11588568845435138,0.30624494562494997
87,0.611540081650352,0.3134711181720245,0.8951142543676696,0.6298325959585455,0.6287205467465281,0.38559392710944873,0.6004958265975542,0.9747525733687489,0.1907082284591118,0.32593558887382706
88,0.5984224379783354,0.31898425520287954,0.8697309972144507,0.6174670672965015,0.5602677741139908,0.3314359360494168,0.5830426973537526,0.9689174220370602,0.1796540467683132,0.30081664833557525
89,0.5633641884666204,0.3594368679130939,0.8256916040636714,0.6336589847922784,0.4867969935002899,0.4713843236973335,0.5784388067549371,0.956978124225788,0.23078318972280248,0.2943463372543433
90,0.5169460541073603,0.41732865307100936,0.7719139021923285,0.6862260447643243,0.4146912407055204,0.5958733242103076,0.5866301188126686,0.9392076886763622,0.1994731386956314,0.42472714127380085
91,0.45888877776308223,0.5066452021809557,0.7010176920161434,0.764023285005477,0.34028669992033606,0.6552380591729056,0.6066848962199928,0.916326259556538,0.1749567909074612,0.28591253078171625
92,0.3989213357036838,0.6143312932253999,0.6223920092985891,0.8441678993218914,0.2741238152369183,0.7173128225921255,0.635378622527743,0.8887372175978215,0.4130516120297916,0.18283026148587436
93,0.35883960300993845,0.7027776933029025,0.5633173453621375,0.902738566042333,0.2180084383233904,0.5560717619385058,0.6629361715450434,0.8582180220927338,0.6611568161053013,0.1384287295797852
94,0.3306627469181656,0.7573932027138474,0.5189534797009339,0.9174822529557825,0.1887121006031715,0.3051136503693186,0.6769199952079707,0.8281895025963782,0.1824755819339145,0.11959806473395301
95,0.33705001724069794,0.7306164182079374,0.5251143239912518,0.8908687485690816,0.19741762937115193,0.23068797210721095,0.6698203667154967,0.8023162135105703,0.9779569229088824,0.11332588777443074
96,0.3842170954568433,0.637349295331589,0.5908417077433914,0.852278631916462,0.2528581045296507,0.6395777578128836,0.640078433689055,0.7843276510057894,0.27719495455449705,0.22123843715990132
97,0.4472975854906679,0.5236048043142792,0.6765231175347944,0.8290794692904612,0.33707072211126154,0.7717532843794994,0.5969716787876682,0.7764398568695766,0.18182644482183938,0.1834208270835013
98,0.5157975531177278,0.4260263928074496,0.762812138269292,0.808781008638686,0.4265547793948202,0.6977805380098198,0.5569166631669424,0.7771726613808465,0.4112162521488604,0.19852560025842525
99,0.5801116717895162,0.35957884049319006,0.837145277011326,0.7788754562833529,0.5044537423736591,0.5423121057823757,0.5319014140086431,0.7824898779268133,0.5497146133320483,0.1918397936508624
100,0.6241804372706988,0.3223060608279147,0.8871615778063956,0.7447491541077806,0.5599625017243623,0.3298435432870817,0.523677669585369,0.788810266858668,0.32290095825235,0.07005512896586884
101,0.649986366968483,0.30000780547382755,0.9148368095714728,0.7181692223220502,0.589920520851169,0.1851415365875183,0.5250468629032811,0.7946565931811745,0.1989815712170216,0.04122200712533538
