Frame,Center of Mass distance,Symmetry,Grounding,Arm fold,Leg fold,Kinetic Energy,Potential energy,Bone length coherence,Torque,Center velocity
1,0.8767551405379408,0.2904117320112928,0.9999993611413716,0.7081886901428668,0.8401181965112766,0.0377840764063649,0.6817062195729973,0.8433490173658694,0.0238084605345252,0.03344539417575586
2,0.8713876362082428,0.29397604072944084,0.9980711863017461,0.706835524473098,0.8361311929105217,0.0377840764063649,0.6817062195729973,0.845134399859197,0.0238084605345252,0.03344539417575586
3,0.8682590034817588,0.2966911370064584,0.996717683179024,0.7057158445877855,0.834017349635942,0.024112099881592266,0.6854692097464375,0.8459642813173223,0.006751610225240817,0.026444499968096988
4,0.8606503014162151,0.3016689441104571,0.9949180533287006,0.7055256148425767,0.8327660975495976,0.04262352701725845,0.6883628920488328,0.8481309538538921,0.018615870862528187,0.04426348630534884
5,0.8544023868182192,0.30536336273758086,0.9926546533208773,0.7055929820931918,0.8309823439750479,0.031408210628110465,0.6909118891365269,0.8494888988101137,0.0035347569794195502,0.026373218188253684
6,0.8471898111982001,0.3109733598382104,0.9901215608844975,0.7057905348253918,0.8279563036679081,0.040354008666563655,0.6926675272562374,0.8518068433082573,0.009003057536169722,0.04114237232100838
7,0.8396999660207709,0.31554541030614297,0.9875935094280999,0.7057869000101615,0.8238448170041999,0.04029060948795367,0.6930846130597486,0.8558203599550753,0.003614371700300694,0.03928260994399397
8,0.8304053103030593,0.3214114329734491,0.9843824051853688,0.7058154942010461,0.8184792945664765,0.050199464185385255,0.6928328301177868,0.8606005669632775,0.010930078880536055,0.048110251352295935
9,0.8202824107805479,0.32648473632971503,0.980699969315175,0.7059191619061501,0.8112286893396696,0.04840931125208111,0.692280193301041,0.8661974994113267,0.02372263877210742,0.037933185770821165
10,0.813302121382281,0.33087363725678703,0.9771964882340205,0.7060517745261368,0.8016653491994531,0.03733652009035693,0.6913468511842034,0.8727478701864358,0.006896881292779706,0.031077578147454172
11,0.8079701296517565,0.33328949070131625,0.9733981098244481,0.7056594447686214,0.7877147482794893,0.03708426036258904,0.6905586868372187,0.880005235272291,0.011715251788644746,0.0364899300282061
12,0.8009480799228188,0.33562886798691227,0.9693854897660316,0.7045296634751999,0.7630084742451686,0.058254178348672574,0.6900967106668807,0.8889639378732271,0.012346227709228988,0.044442771785861875
13,0.7929298011298294,0.3389254408493642,0.963837891305873,0.7031583054464499,0.7328229766331753,0.0782606767463464,0.6893684074463362,0.8993791013315726,0.012583955675383316,0.06517466797489116
14,0.7829484462863219,0.3443071592695284,0.9548321805843081,0.7024365772135326,0.6921314105490052,0.10089223639955934,0.689266467182884,0.9099474208554853,0.03587852511482621,0.08351415836892398
15,0.7620045949393491,0.35594408957742335,0.9407350800901289,0.7024261913962276,0.6528476237809174,0.09731023208272137,0.6912090261402697,0.9188603297878057,0.004390974669446739,0.04908385681881827
16,0.7377685112636913,0.3702039260454445,0.9237469775815053,0.7033198741491754,0.6179831209451233,0.1084461877534228,0.6950739807325054,0.9253918111468581,0.01875877900712196,0.04117976925924322
17,0.7165340729368767,0.3847765831213999,0.9076486080380894,0.7049984781466894,0.5799411426138373,0.09033097789906985,0.7000515555665139,0.9290978212180213,0.005599848774706454,0.037772980752819645
18,0.6980159343478836,0.3992097913487387,0.8906781489593717,0.7074868193062123,0.5414004423270581,0.08506058964316766,0.7068971668235849,0.9290841062148962,0.01698654610947454,0.03538404313816285
19,0.6749676008064776,0.4159176099892665,0.8669552972069692,0.7101761206104366,0.49405484779712155,0.10550433822101703,0.7167813794692262,0.9242991308358184,0.17073041378011286,0.03431129433515241
20,0.6401851939141072,0.44585019155095973,0.8265442812543219,0.7178478086572637,0.4063840628348265,0.21503804247723676,0.7321760306692915,0.9095412396390224,0.1821596170157538,0.08351318724423637
21,0.6046294864961353,0.4928694797312936,0.7805075316519369,0.736497620337606,0.3219979757728143,0.32458533837776743,0.7552829999570703,0.8804365800338835,0.32367260043876994,0.09965560204754645
22,0.613690574623321,0.4976704746082407,0.774581859693806,0.7469368073257054,0.3089669878728048,0.156798930112555,0.7709010961708094,0.8465182883217962,0.1495591437738546,0.07943772964782314
23,0.6169305614646985,0.4702791431298213,0.7820828378934658,0.7344998292821565,0.3353636274110331,0.24826929116917643,0.7645945256775099,0.823332385800165,0.3081007310320756,0.13743352331081712
24,0.6271923099502237,0.4298181279032622,0.8085757081409662,0.7047212059022068,0.4003525592495382,0.4381480640430754,0.7366547664220556,0.8185778762849839,0.13933454265032894,0.2813935118654131
25,0.6286186948583069,0.40805465445218514,0.8300149959656521,0.6692941397330384,0.4657287790932735,0.36614633593008383,0.7008259131842136,0.8261327822787706,0.25164637574896737,0.28404575682880595
26,0.6218788220677026,0.40889387015705764,0.8362708521120056,0.6409605394602189,0.5075284319208121,0.22625565366530878,0.6770729682727904,0.8364353562826217,0.04708167088652722,0.22651176855976896
27,0.6020972060662214,0.4264805247636306,0.8234667629808752,0.6203659315829969,0.531597740869331,0.1911705673684991,0.6691569225326878,0.8443420282675957,0.07188665615800376,0.19830983662205218
28,0.5790340236532892,0.43979168272856856,0.8034641544484658,0.5994374836108243,0.5431092155384689,0.1514542799281393,0.6752685319374507,0.8464493289406936,0.006622084111864946,0.08071432856974928
29,0.5506429221779788,0.45784411793794016,0.7761748093652407,0.5887215406448684,0.5429340639786632,0.16141243281090742,0.6872959258533563,0.8439245715002189,0.019209045711535658,0.03722020319931222
30,0.5248233200954646,0.48034942824483257,0.7542112596233745,0.5952870340983114,0.5363399304254839,0.1724728182910562,0.6850835065097007,0.8421157412414237,0.2041179306835457,0.07807788830395383
31,0.52304081065332,0.4797514452344652,0.757550908855415,0.6041570032731638,0.530178762508444,0.07859313541178876,0.6712210757531283,0.8401342220395532,0.04262392286857377,0.045935894219156975
32,0.5421544069765424,0.46075946565164383,0.7760639078058373,0.6015629078354615,0.5348847849867739,0.13116183054572444,0.6617645569763733,0.8385837419866639,0.08162527845407788,0.10941493380827985
33,0.5728848988170387,0.43788984499668754,0.8040035393055646,0.602497344697389,0.5474592719873144,0.17151227293424545,0.6509331525508557,0.8396500248418236,0.01327459797954412,0.1253273549702725
34,0.6027449520093633,0.4126791675129368,0.8274340142195368,0.6178594058509387,0.5539730059379135,0.19032476587541064,0.6332046272153009,0.844726150741282,0.03707288463684992,0.18385981006362395
35,0.6280502366209871,0.381192727246256,0.8449942679550905,0.6373140218871867,0.5507584274908268,0.24391069073794014,0.6132380038284818,0.8531657809467701,0.025814291151347757,0.2954118340662559
36,0.655062824710024,0.34339635583104466,0.8595400156668513,0.6469879345047751,0.5381694085290905,0.2513183997276931,0.5986040183292411,0.8618546249926057,0.048500403955382264,0.28557405579585965
37,0.6795706970703925,0.31072755966293625,0.8742974845374758,0.6436296725745383,0.5267806448959433,0.21152742783542608,0.6009701573309605,0.8666103987979666,0.023635135102163456,0.09394040286552315
38,0.7044501289531143,0.2727859816110275,0.8956813215824634,0.6251476413010795,0.5338007581153033,0.2625814115549749,0.6209734968600454,0.866935445942345,0.035893300449392866,0.04919967584149888
39,0.7318771344971859,0.24775165748169276,0.9214709751237441,0.6015678341524939,0.5443722935917902,0.249406597940271,0.6375252269728015,0.8676432693977383,0.03780830609236136,0.04703612417535532
40,0.7224963293271787,0.24938653558924812,0.9193915708849282,0.588698018951423,0.5552056639841022,0.22435761425781708,0.6369069519837834,0.8735215687184598,0.17335334963578572,0.18753955148662477
41,0.6974081747827541,0.2575158420199544,0.9071495510207777,0.5861565753159109,0.5467453741250496,0.13625569985291605,0.627437295481648,0.881093532061225,0.14340014785525923,0.027173870599981574
42,0.6737606262400434,0.27053281824280484,0.8883164498420757,0.5884841756038413,0.5388377484562034,0.3185768076713668,0.6061755065443343,0.8927550780621295,0.10481351537217777,0.15495278268960452
43,0.7176738760947705,0.259652633229452,0.9189252802374406,0.5773996507379172,0.5574386768068075,0.28466509321064465,0.583411337581349,0.903531128705704,0.1231766673818732,0.19557298770746043
44,0.716838327803167,0.2516520480692382,0.9349303916513517,0.5620268948678763,0.5725536506578771,0.2981872726660812,0.5897798365298743,0.9109481099375927,0.05213868846130592,0.27918299614613423
45,0.7097749176233298,0.25286093946433524,0.944336860280763,0.5593361607501603,0.5886841917353585,0.19801650510787858,0.6133603643239618,0.914814662033481,0.11499499490743609,0.145612284247659
46,0.7044124297850425,0.2581961404173773,0.9387338110408994,0.5674088392653922,0.5965284005912447,0.13136429189723023,0.61857317948658,0.9182033188297645,0.02561914203692483,0.07363716904766766
47,0.6877899103263816,0.266485206662608,0.9222346835896372,0.566213950799349,0.5970270302786617,0.20971922973852833,0.6011611453708049,0.9241585574570449,0.08909047303631541,0.11656455139618796
48,0.6865206007991425,0.28375716446901034,0.920112431021054,0.5642915591159119,0.6052117875400288,0.12472087057318093,0.5917115374832345,0.9291137574096614,0.1051555017431614,0.13830634713283388
49,0.6667426720610388,0.28951310837926314,0.9171206094071492,0.5627591620265028,0.599934088944622,0.21382633165594536,0.6089865107999802,0.9306246656378832,0.14594094265393104,0.1986055109593652
50,0.6747877769981593,0.27926103175367833,0.9191218784563788,0.5705984975323978,0.5827419467114291,0.11189235565755351,0.6313384370826209,0.9292560830089734,0.02846819228163285,0.059764603494418554
51,0.6753546598993607,0.27280970936889004,0.9097859835465982,0.5750084998646658,0.5815882084407998,0.1543166313031388,0.6367304336261617,0.9293439446611256,0.01557144257127728,0.15577013349897595
52,0.6800166249466135,0.27796999012105295,0.9072428091502751,0.5741801155917948,0.5784812361865419,0.15027211669528737,0.6289421597886684,0.9313263367814444,0.0893401501966902,0.13496184215506288
53,0.6856752016494148,0.2689393275566982,0.9137204684154355,0.5747701306846961,0.5896671063644066,0.07317012018841065,0.6276957486051322,0.9337493811551506,0.06193121655224282,0.020150768153800753
54,0.7017297739050581,0.24655188894954225,0.9254256239124748,0.5783245787805404,0.5845317905369563,0.17147477291441368,0.636824007586418,0.9354810062459096,0.25659768913889824,0.1127746339923976
55,0.7492775986774092,0.2186295571550648,0.9500558520599983,0.585526449008013,0.5973485593034029,0.2897860420621873,0.6408649869037198,0.9383517264332383,0.037641517917514654,0.2698855919285839
56,0.7976174465055824,0.200634688534168,0.9682638717220666,0.5934759044700993,0.6171679724156331,0.32301636785179366,0.6336914697428009,0.9440231401637657,0.1300474778883197,0.30154353269063544
57,0.8570976518688423,0.18285437867637527,0.9816703579599566,0.6032046193378044,0.6366049562789148,0.4256168524444096,0.6223922539551394,0.9518229274849663,0.018000413410325947,0.4129245423160258
58,0.9067755237046388,0.17157694341793622,0.9911574822689276,0.6144100848045918,0.6620741727291974,0.42583442230019264,0.6172815773506719,0.9599625579941234,0.054686510188393836,0.4168451864682792
59,0.9198570207059108,0.1644014471942733,0.9929999604490184,0.6239186161041312,0.6844633134210215,0.4025754482002665,0.6216571112796907,0.9670738027837572,0.18396234822866525,0.3684774915059354
60,0.8965430882071148,0.1654262218735282,0.9923975633422587,0.627239312591248,0.7189194229156763,0.30169489579121517,0.6258948222082503,0.9747350952717139,0.048937648857348935,0.26721877464363075
61,0.8585595691996138,0.16145014974981875,0.988311849074231,0.6333358300021139,0.7614116980944593,0.3385842854259262,0.6220049654292154,0.9830750750681586,0.0837380163474189,0.3028377197805137
62,0.820203805174582,0.17076578712372398,0.9803344982671405,0.6508234960059576,0.8042079751328625,0.2877520996823443,0.6208806285044814,0.9905950728314601,0.051492845267503445,0.21636208520882458
63,0.7950768725106835,0.20128056708937758,0.9733174541448814,0.6900029329924581,0.8445381997405733,0.3093716260484677,0.6373050714002124,0.994337952264732,0.05265864091437193,0.16822556596487542
64,0.7778744103091969,0.23324586581355378,0.9638933420855712,0.7154699396812658,0.8683272219593028,0.2754502753405371,0.6646022154814758,0.9940703496865791,0.36210670717371785,0.15072031172189918
65,0.7791093260749409,0.2515703478878545,0.9547237995148922,0.7119048106480558,0.879614958707888,0.08744903265712016,0.679468946799832,0.9936811274329049,0.12404036408563107,0.05447164384121152
66,0.7855333640710607,0.25861894273645136,0.9528435139850021,0.6972689028976333,0.8631775784745644,0.18807759915590377,0.6739035329456177,0.9951679806065882,0.14261239966551542,0.15594953733587147
67,0.8185019590775633,0.2726586848675803,0.9639891207050564,0.6892343368589166,0.8250494709082328,0.2894543368200868,0.6658449157031822,0.9973715281982775,0.011859801013894606,0.2474190264769539
68,0.844849446908675,0.2860398838106849,0.9708902222879369,0.6910479484163146,0.7686784851822566,0.30311457991663787,0.6691106010467229,0.999066151487686,0.03441759549127821,0.23829726076284558
69,0.8460637616706321,0.29774182013542433,0.9663054510025973,0.6959895684541803,0.7006516445456211,0.34054263314008193,0.6793289691456244,0.9999462578411155,0.03426210515540247,0.2571988553069484
70,0.8117086714176083,0.3130473475545007,0.9463809776597671,0.7019096321572548,0.6266938755989364,0.3130986840410016,0.6899289612690575,0.9998575775708518,0.05335786055102913,0.211303404471249
71,0.7693062104124666,0.3319629905159826,0.9206165290183409,0.7089587285306235,0.5641419917014509,0.27013944601392365,0.696767573049728,0.9988261970162935,0.009705480699756804,0.17311309825615565
72,0.7155551933885617,0.3612301283437059,0.8867134182106977,0.7153260514748656,0.5018405686879333,0.2884879338332313,0.7006437160105728,0.9965343515899281,0.01686905216166637,0.1795212798378135
73,0.6671879028751321,0.3914005114648406,0.8496445719800714,0.7208007860835853,0.4408342474441366,0.2809382401104302,0.7043278731315115,0.9928796419199242,0.0527067354800945,0.20919957783186197
74,0.6234404303939424,0.42348086652146205,0.812253103031192,0.7261385667473346,0.3932677749390201,0.24502629701332448,0.7077079071797042,0.987732918536793,0.09273879852827294,0.17121681733919678
75,0.5902033041242521,0.4482045833682337,0.7815736989162037,0.7309358706228484,0.36036350834311603,0.19809354262310053,0.7098362145263293,0.9816180887867114,0.10592727694393604,0.15820786400561657
76,0.5605329995590966,0.4627700691179465,0.7580877732225262,0.7313172643771017,0.3394295668571304,0.1496691715056642,0.7115779983856317,0.9753138260066389,0.06885108208383689,0.11727567108988587
77,0.5489275686860808,0.4655373768226875,0.7512774092791555,0.727493960240852,0.34731118286274504,0.11825749317219506,0.7125094607725471,0.9694169326265205,0.026244003016582546,0.12025770348010158
78,0.5509548698303146,0.45359912701791394,0.7588061128686644,0.7174588711769441,0.3728875549043692,0.15471228965773792,0.7111212222382794,0.9647731130048229,0.0067402179142905,0.14215532332975708
79,0.5596488814338131,0.4370957473851102,0.7736417169288681,0.7057286182330125,0.41028131212867974,0.1705537636123665,0.7099734793855216,0.9614688557626302,0.038527556810339036,0.1308343202224074
80,0.5708346655244988,0.420883543369415,0.7916733022918775,0.6926032142408481,0.45249294874080376,0.15615200374244892,0.71142165894346,0.9592848781987517,0.05129601696934248,0.11696501834804073
81,0.5858437063885178,0.40454452088020776,0.8120262589324101,0.676985947204238,0.4910720055001908,0.1251345683560608,0.7143233227332237,0.9579122798756486,0.0075210171930243435,0.07211220536444538
82,0.6129070738499488,0.38689921680942807,0.8376546011145642,0.6579510170439561,0.5421097235942869,0.1502321012775866,0.7183998603925237,0.9570567591988784,0.00589378950076514,0.06661503677566942
83,0.63184269911115,0.37471139014630644,0.8571883985094985,0.6294518772477488,0.5880186794875717,0.15266032515895778,0.7252987046870591,0.957017066543842,0.044164422094292555,0.06588707005784267
84,0.6539306106229779,0.3530743523289334,0.8804600825543318,0.5958090040697446,0.633107367955502,0.19090079576468044,0.7323379457577299,0.9577790192801279,0.05363605015281432,0.09540597829117954
85,0.6744561677220873,0.332766011609557,0.8943505028696154,0.5803119244044664,0.660411623754331,0.1307534942119601,0.7346997846476266,0.9584553565032168,0.1894588454047491,0.07685486818263758
86,0.7123374775696308,0.30043838033242143,0.917818785133394,0.5724619372813928,0.6742119472607571,0.26367478337125627,0.724523051319838,0.958586740372418,0.18934080535849546,0.17339284377469505
87,0.7500601706794557,0.27276265076999,0.9363847143735341,0.5355667909229507,0.6739145256119409,0.3950931715757102,0.6875694635024889,0.9596034770544122,0.04118789885357093,0.20684656550210798
88,0.7536393647171052,0.266262987027224,0.9378440780756844,0.48608458011273636,0.6586416293353935,0.38668956848196173,0.6237073383891035,0.9630077063686534,0.019700036282643447,0.15592978885712622
89,0.7198831113085785,0.29215131653857057,0.9182749938209384,0.45022224374103886,0.62166190785999,0.3960136430030708,0.5573670978831873,0.967569091513582,0.1214415487850442,0.3277218073630981
90,0.642120816094199,0.33133676087021635,0.8662823263805859,0.4386532562543668,0.5637203861909809,0.4537421834804331,0.5064358116559533,0.9720764115598014,0.18134561550286515,0.28042197526581325
91,0.5325285570893015,0.3904486200512068,0.7723008162560767,0.45547498268824244,0.4834862955406228,0.5394492582897327,0.474344028264767,0.9746435001131936,0.1726174379525272,0.24113340383520432
92,0.4083880070437197,0.47626950644531446,0.6387955026541547,0.500216932302042,0.386744479874463,0.6311969666476562,0.4648281746162854,0.9736537464205143,0.04789836988730095,0.16880297332315924
93,0.3005687841052163,0.5872738319373499,0.4938824513735919,0.5715215584210094,0.28738152457666727,0.674321761638129,0.4707905557423764,0.9686845729806711,0.0060706561784124955,0.0757895753228498
94,0.2012843830865616,0.7171401924146615,0.34006954995089217,0.6661500436267989,0.17595737376758086,0.6996809342241624,0.47800612196654346,0.960166633523172,0.22336143857103566,0.06413190890918545
95,0.14207019048870057,0.8415232360237355,0.23412327386073747,0.7652046832477334,0.08422018248260603,0.6189273023496975,0.4715551192819462,0.9503813188148461,0.23777564590461386,0.04224651655768161
96,0.1081239234902937,0.9492770192763416,0.16764030948832231,0.8409358205372371,0.01764990866934961,0.5256677435887859,0.4481901778889088,0.9406687871298949,0.6307447292372294,0.11888886971601612
97,0.11522291189413154,0.9744071473841324,0.1740952843436087,0.8583501897727829,0.0,0.21920457424472853,0.41879699234155904,0.9328711617735506,0.5381695671275898,0.022902047975529943
98,0.17787251362323167,0.9014966405506575,0.2714668534998813,0.8308089590129625,0.040851471474850486,0.4120437756575411,0.3866152103921315,0.9291055544347165,0.7959929437358417,0.07309270409163145
99,0.28758835563098406,0.7510281242372135,0.4397776133245993,0.797669839808111,0.14359744798592167,0.8051516391677375,0.35699969553202043,0.9306605838391184,0.136419900624895,0.270682708917607
100,0.4097294759739591,0.5819667563895929,0.604849543516737,0.7539504295231413,0.2674997538500362,0.9048687022179819,0.3497699493520501,0.9367722934103784,0.15887636527931515,0.239392641087842
101,0.5409224245194458,0.4384796462432717,0.7509321021510146,0.6818122904913937,0.374913218066983,0.8398705090961986,0.37601482848843415,0.9440961232098135,0.3166628032263605,0.3295424337498737
