Frame,Center of Mass distance,Symmetry,Grounding,Arm fold,Leg fold,Kinetic Energy,Potential energy,Bone length coherence,Torque,Center velocity
1,0.84206884849315,0.3827080637680506,0.9999992250673474,0.977928736080268,0.9999997962149116,0.042006363477446386,0.5579080143085118,0.6079007969905745,0.005256622320338262,0.08880320116148697
2,0.8453384580274609,0.37571235192299307,0.9999228556694248,0.9763648818198509,0.9897228912886353,0.042006363477446386,0.5579080143085118,0.6173502593734552,0.005256622320338262,0.08880320116148697
3,0.8410206597684436,0.37183939093273677,0.9970635854111662,0.9738811590376393,0.9758392937510932,0.04523384166516974,0.5599608630968657,0.628369612559819,0.013089394436850005,0.07375658795415767
4,0.835314583571273,0.3664468001354155,0.9923256279639785,0.967463990223129,0.9646336674238419,0.0651775148872839,0.5659524459664567,0.6426816876804974,0.004203956494773937,0.1252188482872528
5,0.8291873085604998,0.36266975903258786,0.9867292784841359,0.9494673136599683,0.9562534879290856,0.08024444540180369,0.5745065712694749,0.6597420282809392,0.09776971882630903,0.16420990253575735
6,0.8262631016622236,0.3502632146372864,0.9832926555775748,0.9020113655254945,0.9464859449400302,0.14020401154957204,0.5856261004463686,0.6772856526377203,0.015912952167798006,0.22185124777228618
7,0.8325822155778831,0.32544599744057917,0.98344539437342,0.8014786286001463,0.9318999826401538,0.16349427131638194,0.6047973225018726,0.6954851415494764,0.2421307450777438,0.017088333366619596
8,0.850815360704108,0.27292964106273393,0.987318850236112,0.6299197059486988,0.9166807961834023,0.29155560680456005,0.6281409225993382,0.716362049781084,0.18645549152886035,0.05660952703528849
9,0.8683992376788898,0.22998366593623298,0.9922126012550526,0.4022825937371966,0.9040128865296357,0.41816505785328567,0.6355126449312533,0.7446015836928469,0.09860448483320959,0.0868010830532528
10,0.8733197939206289,0.2163674970699221,0.9966084237995382,0.17376052646327908,0.8877733520881682,0.47325198506211724,0.6132557554144306,0.7810782810247295,0.0020134714518323564,0.20656888353766859
11,0.8452339084112039,0.22646706806902148,0.9902300516849548,0.0,0.8636312706434464,0.47144197375233055,0.570271816150276,0.823077779027427,0.023040754654605054,0.3362441526084831
12,0.7935946019308135,0.24115203909886193,0.9754968674375314,0.005748430812059146,0.839231653092293,0.4462449790768634,0.52392377698097,0.8690847368316346,0.17054457331183945,0.4107149803233946
13,0.7415544321978145,0.25250222763765223,0.9529526211704834,0.03098785057427096,0.8052057540609812,0.33202296584870356,0.48424312227224964,0.9161346359411217,0.20966317491317785,0.32122132654552304
14,0.6910659443723627,0.26621031744631557,0.9203184500497626,0.06294848330113255,0.7486043857659246,0.1935073580896405,0.4581926171384689,0.9582334730147241,0.0,0.278675665483367
15,0.6445910147448467,0.2761690484738355,0.874124128633721,0.03402556198568511,0.6534600366225093,0.21235015154531414,0.45644198383229173,0.9884621168536756,0.25061583154435313,0.26958807852025196
16,0.6071216555512639,0.27442102379849853,0.8143788212501157,0.026202955074039344,0.5169831954208197,0.43227997347920366,0.4838720636723618,0.9999675166660498,0.6227230665347971,0.35666952081717546
17,0.5152812999809921,0.2783843669724779,0.7010527442833017,0.04974700398485528,0.36977393992919494,0.7927518397043977,0.5421490348741566,0.9860767417574304,0.3132193077901686,0.49953736326208337
18,0.4136207051062741,0.3631684685073829,0.5662240996371191,0.3388751349944481,0.24375114725358396,0.9946634452931553,0.6233355104467455,0.9471869060320545,0.108619761318737,0.45982170045712106
19,0.28683690356577907,0.5971956511118879,0.39963800455836773,0.633649478141222,0.13331899616991114,0.9999999976363712,0.7069831622435437,0.8881965624072364,0.397004948301048,0.3118503750174377
20,0.1732671873504586,0.8190774976162389,0.23616778091490598,0.7980549185177659,0.03545497020086184,0.7744225854457013,0.7738352534935699,0.8168518432716898,0.9999999998060635,0.10667652403027622
21,0.09847238718841769,0.8770659610737366,0.12677014577728435,0.7634627533871435,0.0,0.3271780481419421,0.8226896613017444,0.7458785592373459,0.11638948261942825,0.23688246372005514
22,0.07849103261028263,0.7757452299754625,0.11072035310965318,0.5819904031982619,0.029875568018623008,0.44685176233111085,0.8470490545179037,0.6879592711134936,0.6023281801670418,0.5331455222276175
23,0.11040597946999163,0.6105374598443111,0.17785821821226666,0.3541411893759017,0.10179194934362341,0.7460303779149876,0.824632364488605,0.6485502729295874,0.0721628815363114,0.6682668623610124
24,0.15990254106488866,0.49919441821464094,0.273710976934157,0.15915604808780454,0.1855056023699561,0.7548006684419886,0.7666526386744533,0.6261486326123038,0.33012352034118747,0.5730580241407696
25,0.20391370589951008,0.4644377778653092,0.356632869199622,0.04533930478054355,0.24672819931868245,0.5577705153702777,0.7023846446800058,0.6160610155503098,0.5217176220764814,0.3969936472167412
26,0.23389952668028857,0.4635907820484934,0.40530461388430045,0.06913999040938898,0.2771749029479536,0.26081457005757985,0.6510384130906661,0.6120545359898862,0.22936461916114748,0.18983928999850083
27,0.24032438206076007,0.4772441914682111,0.40627297784997346,0.09320894831819403,0.2566457730715484,0.1401845937573053,0.6289682934617284,0.6064071274706215,0.5309650939181387,0.18035971276235935
28,0.22250909919964285,0.5032752900249803,0.36247665552873837,0.12000221095831065,0.20288727617797186,0.4652740714296175,0.6434943825653798,0.5930685400889002,0.39720013047856945,0.35388607679922657
29,0.16600701879575971,0.5883635693089079,0.2611497383636799,0.32257750442808075,0.1262150873471807,0.7074187283631647,0.6848992813380752,0.5696589991163307,0.1369439476142577,0.4123529564915858
30,0.08820871506645903,0.7626275166274084,0.1326139321064007,0.6058482864356077,0.061531684473151924,0.7703513448516967,0.7259204769880762,0.5387217758891986,0.2850085492301285,0.3989413460754104
31,0.028392358246176135,0.9399873587232003,0.03864597012526341,0.8159016235414567,0.02231991027748042,0.6108926758479102,0.7438814735879646,0.5023270020060139,0.712331821300416,0.25611490812977467
32,0.0,0.9999999784981688,0.0,0.8379050013936958,0.007377172540146083,0.26322488232236774,0.7504879530164635,0.46446181095165806,0.00688837746048147,0.15114757048849486
33,0.03352253194135875,0.8998538100732422,0.06465738705805187,0.6924650544314548,0.04420543104330289,0.31962082850880563,0.74648028868479,0.43323259107603185,0.9556609495188505,0.15900633869381675
34,0.12452455928387814,0.693443164475957,0.2208328058118502,0.46438425154609875,0.13334525130499725,0.747435378409219,0.710344859667228,0.41368507930549003,0.28044897611168496,0.25649973468535364
35,0.24092024202306705,0.5166565690550291,0.4005116704706208,0.23521899338295646,0.24572335954940464,0.8724802986369529,0.6423881333135596,0.4068692510408826,0.10502901885640004,0.3509790193874148
36,0.3673463975397541,0.41415903251661823,0.5685274006784884,0.07961070825380992,0.347987390475216,0.7649861396943144,0.5638436421296076,0.4101040635753004,0.42941511807020005,0.2828531726410823
37,0.4770280598256654,0.3456527799412377,0.6883173834855657,0.0759152326732576,0.412669152702583,0.5295934459259318,0.5039021410671833,0.417940249919168,0.48542968267267167,0.36877627135201085
38,0.5525182642470627,0.2867456347882611,0.7510930285787721,0.06494484763884767,0.4320684468797577,0.32817354186579306,0.4782549342866285,0.4253897281431721,0.050118575752501185,0.5327439903303794
39,0.5845428261603546,0.235946183283295,0.7613234731246253,0.05534730111727627,0.40046680573742044,0.3940948860069725,0.48757196500093375,0.4282642002275224,0.0857340854835831,0.6311579721402603
40,0.5746669902986529,0.23659292527226694,0.7286068230541495,0.22610315310152002,0.33124760557029176,0.5584710257346555,0.5249471826920932,0.42388403751881093,0.23064055315586057,0.586922797057263
41,0.5382032305341587,0.3409852697318853,0.6763212784597177,0.48018487432164286,0.2610852261680899,0.6719653965739439,0.5803110111132406,0.41144509388701545,0.08881025274952452,0.4808306611762497
42,0.4855565210415108,0.5402278340803611,0.6164049036247699,0.7288171834192296,0.20868068393904637,0.6872119975503802,0.6399607718312103,0.3914393187513386,0.37095112198497165,0.3114536015492472
43,0.4424314824814838,0.6854589199876726,0.572428349524435,0.8647681627167523,0.165954070196553,0.48304372944968593,0.684148166481961,0.36656390277157985,0.7800172297064636,0.3076747551748515
44,0.44167953962461903,0.6925204437942413,0.5744994875961202,0.8565901189733275,0.16293668893821658,0.13637999287610197,0.7130396981028825,0.3409531919484286,0.8123871904183713,0.22914787009536539
45,0.5095234476520679,0.5520513751930214,0.6435954640614933,0.7392567958162224,0.2143534123850826,0.4630397172232515,0.7310936495791449,0.32003072133679156,0.5750378166827782,0.2543134640353451
46,0.6125178391025171,0.33777636044483844,0.7364270494015226,0.5661554721246086,0.29816912560408754,0.716336645368557,0.7335976441105952,0.3056187752132602,0.06391093796292181,0.3417701701694794
47,0.7120255498503371,0.14387917953147306,0.8176688149126726,0.38241108809699303,0.38806787425022066,0.7469257325578943,0.7310531059183307,0.29676982651470274,0.2863894129396848,0.17840772119132786
48,0.7634617256985305,0.03729293216488487,0.8631574830918962,0.23554980906338577,0.45326767699219683,0.607223480506784,0.7361995926416921,0.29126038868677556,0.45289391427752435,0.10013056288918544
49,0.7584206999083116,0.0011600369969275168,0.8716741983483302,0.1590075974157552,0.4846133570808884,0.3923589659844641,0.7517448545738938,0.2865819874621596,0.3557723588198945,0.20892982465584709
50,0.7293100477175298,0.0,0.8553464210722631,0.16447284226614153,0.4740966554243607,0.22949065401359572,0.7798821924379064,0.2802092118205246,0.07385576756901904,0.38765014360640593
51,0.7026655724295273,0.042275043362439695,0.8273005233787925,0.26028144599149083,0.42834408738572066,0.33685051837252533,0.8251449094771448,0.26993684904481097,0.3460208310879318,0.43727114181133314
52,0.6664404127098427,0.16130914721155334,0.784799426046343,0.44953922520586687,0.3616612841391143,0.5233098368101318,0.8819168892023187,0.25497642951475696,0.16949484945850923,0.3947165623423898
53,0.616234847013074,0.35102766184577266,0.7302686211529672,0.708047763112086,0.29321924931589394,0.614073530125123,0.9343698298716564,0.23602775715509933,0.0761086967324232,0.26883436302312047
54,0.55914249906439,0.5405429058575782,0.6751665731631125,0.9153307482125855,0.2384905754329677,0.5540160647306921,0.9680790384462337,0.21420395537179682,0.5028631061573658,0.17476750018916537
55,0.5202170396532453,0.6430040494830438,0.6386833843870467,0.9962973751490248,0.19546975877035214,0.33105366080946375,0.9813533578064815,0.19026532889930642,0.4727474009969225,0.18950602044631237
56,0.505847654929761,0.6527538659918826,0.6254562046666708,0.9999999317217997,0.18672425128637093,0.11989601557462157,0.9870646782573888,0.16690365219143327,0.35833571893895033,0.1881078597674145
57,0.5058597532340504,0.5911831496332572,0.6328670910411849,0.9641756738922761,0.2181521700645011,0.2893614496470552,0.9923659799454136,0.14654528780683546,0.03895573608809645,0.22233709984968153
58,0.5137271247456149,0.5137060263686841,0.6536701150355764,0.9229372663510613,0.2637490355489532,0.31370589294254714,0.9971107739292076,0.1294233972943895,0.24931762086220827,0.17803393713168586
59,0.5280085834424523,0.45348374778430234,0.6773446283918998,0.8940347527418211,0.30324527765168346,0.22533858252652372,0.9999998309363278,0.11496319243045755,0.19451434018807542,0.21529231241580712
60,0.5453577257640768,0.4195595666780141,0.6976130666008243,0.8818267537326652,0.32732134660480366,0.13866208638959673,0.9995260519068645,0.10226331051392361,0.1170606979976205,0.2152387372657067
61,0.5589087307943637,0.41234157982920716,0.7094442137271536,0.8867978995756798,0.3373661010057136,0.08207535985603301,0.9932949513150194,0.09038818981907173,0.03789739333710547,0.10164424451267522
62,0.5687296616538777,0.42681550473274205,0.7143868411607709,0.9016875931866778,0.3378617025874497,0.12162555707566827,0.9813179170833755,0.07897664697539188,0.051415402366160885,0.14472814132167663
63,0.5701864905147802,0.44965298316079816,0.7108769036321948,0.9175335998788822,0.33116496090536446,0.1600345709724755,0.9685118773300266,0.06796199510971099,0.03226395593540662,0.1734860818488191
64,0.5635166649367476,0.46621907076137903,0.7022777094259971,0.9248227559441369,0.31894384350058075,0.14598728942039357,0.9563425979975372,0.05731406113288008,0.04091303367213877,0.16091756782056413
65,0.563473824368278,0.4710405207425565,0.6997300263112701,0.9200802624246549,0.31122289783034374,0.14297022492536826,0.9448300218326892,0.047258389988657425,0.03810093928538314,0.24551129163499674
66,0.5639221659654508,0.4642474936206155,0.6986333617570816,0.9095520339432527,0.3089489553503288,0.11841480117793264,0.9346877148138937,0.037993873115890975,0.004366004381511531,0.23944776240783489
67,0.5644692033298182,0.45204225222929106,0.7014681938080104,0.8998768138495039,0.31542847109803296,0.1183294109629191,0.9235502394972331,0.02982666366368965,0.008093670392983107,0.23722067550552078
68,0.5650501657732148,0.4423968533979914,0.7059434405263347,0.8929703308044834,0.32249463594273586,0.13173476235479284,0.9109245409913312,0.022775230735223966,0.00485425000697194,0.25867188712116285
69,0.5629057888179676,0.4485616703995262,0.7062489181180251,0.893995263857006,0.3241312395409815,0.1432388835275506,0.8995955643612216,0.016550988632320254,0.004956894968812559,0.27549000664956014
70,0.5592597645421978,0.464138194283829,0.7022807642019133,0.9019063226330284,0.3244890029906435,0.15446079729466783,0.8910628928864215,0.010950766752781015,0.06144232898439748,0.2976492235919492
71,0.547804455783763,0.48353639539824983,0.6950592739342563,0.909324186042837,0.3312096317844717,0.19241546599531476,0.8878906311439199,0.005921702138238637,0.04548511537704134,0.3570706987787079
72,0.5321072745114752,0.49042970042483985,0.6883082191578085,0.8998429762010777,0.350248519225854,0.2267905536945882,0.8889912054330462,0.0020172624092288875,0.1612928661645803,0.42238991088342037
73,0.5065179988116264,0.47504004000987454,0.6759730340051916,0.8473595320269233,0.3767139279211886,0.30589772629958106,0.8884373037378069,0.0,0.04783021233018288,0.482505100610225
74,0.48422686303695656,0.44796194616302676,0.6684094088348322,0.7589189334069009,0.403736169362451,0.36527762384438495,0.8813579828376303,6.369939723405231e-05,0.033887718112784765,0.49542447174480564
75,0.4676998488270792,0.438623046957884,0.6630452223246824,0.6622093601978023,0.44133093723197364,0.3674065246656049,0.8661461246716669,0.0019544507057575175,0.08387397879097444,0.4948160387507188
76,0.443744516909926,0.45240664395201713,0.6503373545101925,0.5890832855423432,0.4744638471780164,0.3020599961030731,0.841889119688395,0.0054298018266773105,0.25294681295264454,0.39792523301203075
77,0.42021607718480886,0.47054123439216283,0.6351490086511409,0.5606340518613534,0.48963372392069826,0.1738591970166188,0.8143157494007803,0.009873471123218312,0.05018311605316865,0.23931148575236233
78,0.4081925582891514,0.4909733469466775,0.6241029389354685,0.5758912592907713,0.48781182340232326,0.1738353961205965,0.7938840456745329,0.01468095248423536,0.008888700198721752,0.3129728243089074
79,0.39951362567003096,0.5243262486821851,0.61305381444388,0.6175164264766215,0.48871678409428715,0.19428324663749338,0.7772852117091497,0.020153417337485942,0.07357557082524467,0.41757524596393636
80,0.3993731256770641,0.55260715778527,0.6141077121352243,0.6659477229719084,0.5011112415089947,0.16636369333690174,0.7531008012507128,0.02672546218425808,0.06303014730972195,0.3758444021863368
81,0.4022780442149354,0.5757253116627287,0.6199942653271763,0.718533485022071,0.5121775709465154,0.15111452924635105,0.7242394021756666,0.03401025903853614,0.02636559758654687,0.32726583115179486
82,0.40733720195946216,0.5940276440925184,0.625743353602864,0.7593974543980031,0.5165121588093202,0.1292161484143975,0.6931321525779325,0.041783222483534936,0.06405839703087869,0.2333597495148475
83,0.41232390889358117,0.60216108884288,0.6313763603937098,0.7878790536032695,0.5174205805457651,0.09492963152468387,0.6612633358867658,0.04978819649522635,0.11110426612801037,0.09205491812861827
84,0.41229197288563524,0.6035652666757556,0.6299558895923335,0.7984950976716486,0.509901331049703,0.042543608270909423,0.6393132559841535,0.057726748930916616,0.019818913127153382,0.018288819004574762
85,0.4054671907605053,0.6016931703277041,0.6224930720272351,0.8015448697567211,0.4945007377579344,0.05987993841249728,0.6275369077355457,0.06538945573912607,0.005504647294670752,0.0945161851751838
86,0.40021676976951376,0.5999671718763769,0.6174496369883655,0.7989187840155794,0.4863377495638673,0.0690992731118052,0.6206131253020868,0.07270396631663076,0.03223392359226104,0.14376909817979444
87,0.4000906490962863,0.5935878473070629,0.6192366808997738,0.7949268918366517,0.4901149728911458,0.05680533429860944,0.6144880845543714,0.07988771499097042,0.0054781710026805585,0.12444265527314616
88,0.40458956073468216,0.5782034964949221,0.6271393861969107,0.7894572243174649,0.4984609866308861,0.06819102856914781,0.6063170037815089,0.08713776184271532,0.022676476029085877,0.13771737034509463
89,0.4112836607303391,0.5623928489280748,0.6384267832100243,0.7857917041153133,0.5058317688851552,0.06859258088532953,0.5936159172872286,0.09454405662659769,0.005367161593968013,0.1559475357951166
90,0.4196213811982544,0.5459136828504797,0.6503831761489443,0.784604633100288,0.5117951424168219,0.08561116161666259,0.574420384053781,0.10210932787022667,0.006315140694252306,0.19287669052203513
91,0.42376173822643076,0.531475169179208,0.6567584934876027,0.7858612546627992,0.5113875549268787,0.09573112360784697,0.5525102113070426,0.10969227567529155,0.026569432713865453,0.22860168246124074
92,0.41789788975176834,0.5224050916340334,0.652295465872952,0.7892821493309066,0.5004248097097425,0.11640412686516334,0.5285709132155815,0.11728324751816137,0.018820097958298657,0.2512788519313421
93,0.4083698242594196,0.5182362132382456,0.6449334559131146,0.7933281468965471,0.48227580976498524,0.13870590188212506,0.501199598142689,0.12479190070020726,0.05569055871347129,0.26394951380624976
94,0.398122369617997,0.516754354849394,0.637149886876736,0.7944935554863002,0.47204017899636186,0.11419772607471433,0.47439043814391724,0.13233088013881658,0.05875561816395575,0.18867013788205836
95,0.4065429025811492,0.510707484370806,0.6506458868777991,0.7902923468519207,0.4851785507837422,0.08028996550943922,0.4478839035942311,0.14032835643547648,0.05346592979078579,0.10983351784255309
96,0.4212468712401369,0.5013373580256848,0.6721973309718443,0.7823893047772462,0.511343906428852,0.12699166163697154,0.4187010545625247,0.14927966614195043,0.005506263757943428,0.2220607018625797
97,0.44260985332479563,0.4902372512612663,0.7005487062570055,0.7739097920819944,0.5439475006799182,0.1453886907406748,0.38802808682393125,0.15929073313896924,0.020486730535552954,0.26326457402779013
98,0.47249781806133656,0.47779807364637583,0.7353792612620108,0.7739247662029863,0.5670276875972537,0.12824888620840466,0.3566445375268244,0.1699346746967318,0.0697895557218061,0.21719692933795942
99,0.49972493081789654,0.4706366201860962,0.7617114296660794,0.7821404235984273,0.5752374663114139,0.10888197095179222,0.323821108979808,0.18095698708217328,0.03521178934807172,0.14553346801924366
100,0.5172067796984064,0.46686135482980234,0.7775809905546022,0.7955462241010149,0.5705611751716706,0.10083982589390544,0.29123362836741523,0.19198768790540294,0.027678441460338356,0.06487551098238323
