Frame,Center of Mass distance,Symmetry,Grounding,Arm fold,Leg fold,Kinetic Energy,Potential energy,Bone length coherence,Torque,Center velocity
1,0.7716110248640484,0.2776284341666686,0.907000238028771,0.6877073947459288,0.5826565739970768,0.11047884115312771,0.7700349818602764,0.511260251525091,0.04887544450973837,0.04919844228418299
2,0.7702159974206847,0.27250003887056845,0.9087321420034589,0.6964497699106065,0.5900063477653772,0.11047884115312771,0.7700349818602764,0.5272375776849187,0.04887544450973837,0.04919844228418299
3,0.7727827358544306,0.26384992903497667,0.9128953272741227,0.7029312563393129,0.6004514138673662,0.0997965884698584,0.7655700828915374,0.5426807556974582,0.00410820664613053,0.033180623326546935
4,0.7725279270445778,0.2578352298162819,0.9156585765215972,0.7094593531196153,0.610370096503479,0.1100271041381809,0.7602624442933532,0.5585562656396597,0.004664060614021485,0.0567986351322349
5,0.7685966545484775,0.25242772832899646,0.9164111159703504,0.7147213375235739,0.6195253975174538,0.12234931401823572,0.7539479715823246,0.5762383402590142,0.010503502312474617,0.08310398000173769
6,0.76356057023743,0.24822122486850748,0.9172109106435172,0.7176038716755215,0.630435164225508,0.13884115814710504,0.7473841361792235,0.5951290960000878,0.09348368897828906,0.12943387686725605
7,0.7524797381000797,0.24421615770962804,0.9163756745520426,0.7174986860408877,0.6446718615957017,0.1892217103639492,0.7415674977315371,0.616485828586536,0.007013448303695205,0.1906915724644302
8,0.7468453028989551,0.23756011974949404,0.9194590779449032,0.7141938949832983,0.6662919737180321,0.20383954576229218,0.7354388909971133,0.6406706557243582,0.09050372119767597,0.21419036561128013
9,0.7389684413617241,0.22992495575031605,0.9230634701869036,0.7057713015680992,0.6966861406639463,0.2628745116677629,0.7295549018493943,0.6688586252108153,0.04544470164463087,0.2716624173134759
10,0.7281738588130859,0.22802216572034037,0.925619977827573,0.6943962786000879,0.7367472669610865,0.3014913059798416,0.7259794298453,0.700410942536358,0.044770562921799456,0.33676184037070606
11,0.7162399551433745,0.23007047499480443,0.928213108267163,0.6833560583835915,0.7703739503337254,0.2859649860893476,0.7258613276926332,0.7326207042026829,0.04771225083187105,0.32461988971113626
12,0.7037091436238989,0.23694731228576035,0.9291700265614988,0.6766293382152367,0.805830727499115,0.2568353882992243,0.7279275917840301,0.7633368772394115,0.05848782385567966,0.3173471939658195
13,0.689531820038606,0.2467639876333689,0.9270624435527376,0.674631356388429,0.8319407692956531,0.22277304129512326,0.7298423644683173,0.7917239862451464,0.04804406106415895,0.30012797766610844
14,0.6767819925058943,0.25655777569793803,0.9247445747953457,0.6767204209208859,0.857299418717488,0.19614684630802054,0.7302708908376038,0.817671240600297,0.04618031985585477,0.26508994473343683
15,0.6701407709378826,0.2691953852671654,0.9241633355350832,0.6818408783423696,0.886897124319488,0.18001133144386103,0.7282493199849803,0.8408009599203672,0.008983475748617476,0.28271054181785615
16,0.6591224971055494,0.27999660516940783,0.9221644395424711,0.6861178459949419,0.9108005932544226,0.16627044057371324,0.726524655761911,0.8611010836805031,0.027229668155404452,0.22175970721141944
17,0.6519295415296771,0.28880368586338495,0.9220652035712054,0.6872477939494831,0.9340225953408935,0.15535561886286747,0.7264822179739916,0.8791008935456284,0.058998002847825505,0.21749645734381418
18,0.6470921736528424,0.29538454636268924,0.9226724332048954,0.6874752503496546,0.9559385780980482,0.1287368843843732,0.7269353467018799,0.8946230299703609,0.10295234643159458,0.17259108773006984
19,0.6451253727976991,0.29924096897417873,0.9241857817666789,0.6862867329512145,0.9702027146758234,0.08403678163479812,0.7281649081511405,0.9081546334715647,0.061942105739513496,0.10440505715062254
20,0.6498246967515795,0.2993465664208655,0.9288037985723088,0.6835825703396158,0.9783888643379982,0.059111217103700854,0.7288811079357105,0.9201725735523053,0.05694204277119628,0.03444763121569762
21,0.6505977869582212,0.2994869989275904,0.9303431375075165,0.6804777553533501,0.9848943357280228,0.039604375256592626,0.7294408877834961,0.9313790740301452,0.026786733078228438,0.029146654139358703
22,0.6557593342972303,0.29400974480222325,0.9343929102395963,0.6784181563727474,0.9897179581045478,0.06211684691361187,0.7310882377537342,0.9415285507824372,0.02941584595391325,0.04833422613509303
23,0.6594712331331344,0.2914168772953755,0.9368537260508321,0.6778760519863368,0.9923219702432432,0.04978849889095023,0.732716633576356,0.950606742616557,0.002875908795645186,0.02464257111783178
24,0.6645498453080214,0.2857806349215015,0.9397043974634663,0.6767721869903006,0.9921248202710328,0.061526779941933014,0.7337846349631612,0.9587618460186862,0.005855162133546251,0.03938016821003619
25,0.6716107211928454,0.27982514538121117,0.9428515954092815,0.6767073949578163,0.9863893841954419,0.06715748115320454,0.7344923245946317,0.966133465616044,0.016576671282738292,0.056412097314522174
26,0.6779119450836721,0.2757430908613795,0.9444972585994191,0.6746662757732945,0.9796080863067907,0.05946564628145547,0.7352347252312641,0.972631015614869,0.0200867574184148,0.05248472763932373
27,0.6837026951187768,0.2701139773869371,0.946884828812817,0.6723518005751362,0.9765912541006421,0.054164207990613215,0.7362145045614554,0.978298790972309,0.06872310530823099,0.05071545873098508
28,0.6843512907559625,0.2682893333703478,0.9467040775794429,0.6692747074325033,0.9722031142657491,0.025982851860397997,0.7373254632427122,0.9832389867073905,0.09260640883585654,0.019537129636621266
29,0.6936576519026749,0.2630486216914628,0.9516895037548724,0.6622787378254003,0.9633787849259121,0.08453940355330575,0.7367577977517887,0.9878768426929811,0.055514918617237584,0.05936331872466386
30,0.6998859519469994,0.2581214126233531,0.9532028523166558,0.6485458183801129,0.9462854477427545,0.11439585123427806,0.7345562524697762,0.9925276837836562,0.11645948969763026,0.08225014733701265
31,0.7106976216591963,0.25123439448063706,0.9547102939753879,0.6332546054330792,0.9205347613676236,0.17817308043659313,0.7316605476622168,0.9967727637693279,0.15412082567981805,0.15778123879727363
32,0.7142071678002696,0.2448075448982347,0.9518537156597022,0.6193930845726457,0.8884918462501479,0.1261489045868582,0.7269175176942604,0.9996090211233206,0.026552350959650615,0.16445727418985778
33,0.708394233905934,0.23985336659611228,0.9443129632242129,0.5940403455005232,0.848818816756342,0.14754260127627544,0.7221091080639178,0.9999763366463462,0.03632711536047838,0.2346745470154589
34,0.6905660363021112,0.24318101573021292,0.9289987263730047,0.5459302882539975,0.7977879170953586,0.20607733351139682,0.7174426861682345,0.9968906343425182,0.12234424820752374,0.2977658146157282
35,0.6584533434169549,0.25517719109282977,0.9017466384548042,0.47792634897391284,0.7331582770266334,0.2852847091657867,0.7104500635265342,0.9895043224982367,0.18155597249980662,0.39643840740550956
36,0.6135566766062817,0.266735730640412,0.8614072161357955,0.42960876651820984,0.6503619198106385,0.38257525071809434,0.7028925379256921,0.9777618234765688,0.20368951134167068,0.5471906248888379
37,0.5678302366487654,0.273534951455623,0.8128489289109886,0.41826770667223406,0.5617149226219528,0.4532953437705969,0.7046400037212334,0.9614549405414895,0.23727730788467377,0.5769093057075333
38,0.5094110912728536,0.29800937827770385,0.7498045526427871,0.40547042861566673,0.47683889696121823,0.5292644503694315,0.7186724891908969,0.9403157532192684,0.14071715920798603,0.5468111148300484
39,0.4424044084301259,0.32538241478526025,0.6779872439625657,0.40311747891761085,0.4080388281468219,0.6100462775980778,0.734682364799779,0.9156319986673755,0.2394742251126366,0.6690687459493112
40,0.3904550041530359,0.3489282009216311,0.621721629636217,0.4070560006578277,0.37361924590174644,0.5143206325819585,0.7459360076137657,0.8891361083234091,0.3846917678098089,0.6203957757403835
41,0.36432934516014803,0.36123842052787963,0.5934559171543837,0.4097983626379616,0.35664408390135327,0.3439057066851523,0.7514778286505103,0.8623807607206622,0.11634452174533738,0.4403953077448492
42,0.342248604567917,0.3676202258417369,0.5707639583919064,0.41475027209016957,0.3462181701190247,0.30079079543277876,0.7546732324789787,0.8356528467318697,0.14221727504789786,0.4009118593527376
43,0.33837053967919284,0.3658176630008146,0.5686362919127721,0.4265007969755809,0.34387099756506334,0.24058202282026336,0.7656230701500288,0.8094640862995784,0.008202395809072498,0.21165030869335202
44,0.33156036919175663,0.36697337778633454,0.5641364131681713,0.4457494010422812,0.35146247028918953,0.2729972108979155,0.7921464892764067,0.784367640946084,0.023647635477863947,0.17922639514536332
45,0.3224248911323609,0.37784416309951907,0.5586772533680155,0.4647048492209373,0.369794461550691,0.28012844754694066,0.8290573119309936,0.7610353408082334,0.058527150447772285,0.20438331286116876
46,0.31434236614526895,0.3955295025721272,0.5541289380183949,0.47676043753187913,0.3905216601637853,0.2578888834631516,0.8647252645945308,0.7397840704495057,0.09811913805342964,0.2314430193340467
47,0.30896666320867655,0.4166952877515923,0.553241721180065,0.4810872729745387,0.4082141345664832,0.20349804461928594,0.8912350089654412,0.7205021689709813,0.06423937020051501,0.2236326771389188
48,0.3052705650366038,0.4323220933974466,0.5538371370076525,0.48153393140546813,0.4230787622922018,0.15967099918363703,0.9046799367233186,0.7029847712677587,0.04666321600718272,0.21546194980856834
49,0.29578472051766447,0.4410143502743481,0.5442691354449041,0.48231012748344143,0.42796378079357406,0.12018102857687242,0.9086206130861757,0.6870401596861615,0.004742319276027587,0.17476893705859134
50,0.2840992160078915,0.4469657675712867,0.5308202985773443,0.48252395010940063,0.42751898982087294,0.11679363099256106,0.907528287829967,0.6723007437360595,0.036342456656146556,0.148737661914795
51,0.2754819851875695,0.44893510720543855,0.5197625760650176,0.4825499214969304,0.4242863602265912,0.09828133016990699,0.9020602592458301,0.6586678255929104,0.022266241955564193,0.1008357981023924
52,0.2630974101342331,0.45337584471406334,0.5033449297237976,0.480065196520526,0.41734912593725465,0.12198517065417765,0.8930242323879756,0.6460026376937713,0.013515088734280553,0.12362928136603953
53,0.25071297231783335,0.45735432824483596,0.48684931226230116,0.47691117899164487,0.4071652969083463,0.12103250789677775,0.8807089927126748,0.6342853326036476,0.012918385988361192,0.10872706047341957
54,0.24011168053939191,0.4634999912789298,0.4741364755149535,0.47247008476307334,0.40166272451466123,0.12098390453296472,0.8657778326716501,0.6235259842043648,0.04196378752012899,0.1226582015713884
55,0.23433476826637908,0.4626598022846032,0.46687216614227195,0.4677670611557044,0.39375807235482296,0.09381484842848602,0.8513036594674986,0.6136795866933801,0.0038319307608855333,0.0710210347242816
56,0.2295212509103137,0.4619857655193016,0.4618052247047339,0.46395360740817154,0.3923140209635588,0.0943653513776652,0.83714038890142,0.6047754806914943,0.0058538098081702995,0.08657412473348207
57,0.22417052156989078,0.45819327311151875,0.4550772621291235,0.46148369994589666,0.3890306375931549,0.10094979020791496,0.8238420906980871,0.5966766877917602,0.03525219194790524,0.08286963750450803
58,0.21986825587686015,0.4521410534175993,0.4501568118872615,0.4602659004639686,0.3868999607431092,0.09086243468643507,0.8145043238094191,0.589257686281687,0.14025206035407567,0.06662095530196896
59,0.21900555496927385,0.4509089037376132,0.44914200594301906,0.46003575028329735,0.3865810053424733,0.018038994888946794,0.8101038041805035,0.5821695080245168,0.15258182956475205,0.013786192452780234
60,0.21310337832475257,0.4429810606666118,0.441617792836074,0.45853301207149605,0.38427337289698377,0.10997739852378564,0.8071969994380356,0.5757989959801983,0.21592584123877887,0.05330670574472479
61,0.2130410142134077,0.44288508568200885,0.4415433658576264,0.4585167310548575,0.38423067490260443,0.0014278763450678443,0.8049216508473866,0.5696403432981293,0.3645553242755728,0.0014297746802163906
62,0.2074763334755905,0.4277256007204933,0.43566009041837395,0.4578171154378693,0.38080789403330484,0.20204395677433126,0.8014942371445196,0.5641646124681096,0.3958240267805627,0.19811956579915824
63,0.20747339607868417,0.4276166088232338,0.43566717870203486,0.4577950370674905,0.3808212424358483,0.0008325094468729688,0.7981057032649792,0.5588615449310923,0.007918775060668775,0.0009561127109160128
64,0.2074776092278483,0.4276030664146705,0.43567544836630867,0.45779338075997994,0.38082371361808837,9.976979621936496e-05,0.7981103348470042,0.5537241712976383,0.0071329733506926,0.00010877333865346716
65,0.2074779268697584,0.42760196636124964,0.43567544836630867,0.4577934541166974,0.38082407826387193,0.0,0.7981108953050824,0.5487450273025419,0.3475693821879471,0.0
66,0.2188321806211809,0.40572414426892245,0.45272158919220135,0.45596164818941876,0.3828315878516195,0.18035382194971303,0.799637262862801,0.54394587509166,0.36030837895739226,0.20371283813947025
67,0.21952115244573733,0.4053420905270396,0.4536489729712807,0.45544250722021373,0.3830751967294909,0.008165737773424952,0.8013311980070728,0.5392977771723055,0.01967414202683039,0.0070195131224683035
68,0.21954180491499384,0.4053288218499923,0.45367850748653715,0.4554353336324807,0.38308667243732636,0.00016154740398161986,0.8015000005445957,0.534786604640657,0.3136137573079562,0.00017812104982569335
69,0.2405200519809474,0.3934835496656304,0.4834398478210001,0.449312915314885,0.3967749203253327,0.16714054947540266,0.800528232049281,0.5304894128694669,0.31748629253175115,0.17699670155250075
70,0.24204306107796103,0.3927880699098676,0.4856584806071263,0.4488575284831077,0.3978342899400761,0.012629639137983872,0.7993776922236486,0.5263312061746992,0.17912488324237122,0.010833924601901848
71,0.25568789544740855,0.38902296775950285,0.50598885952963,0.442860885226948,0.4071509920303139,0.12309056320411232,0.7961014546862392,0.5222989846849226,0.12286327492444028,0.12781394211375421
72,0.2599734343359732,0.3847614659162424,0.5119808219850283,0.4408890381807441,0.4124741860271568,0.05532417839170617,0.7921868722571932,0.5183082675190946,0.025136649504897246,0.059701884085807656
73,0.26244583937153404,0.3836089043140837,0.515905368372418,0.4392917138021344,0.4166603086668849,0.043703248765453465,0.7898950117741654,0.5144094042829429,0.007648465335243727,0.032023392784671874
74,0.2619820549904581,0.3854112476191259,0.5153631146722921,0.43803967613962386,0.4168901196406823,0.04591089983663107,0.7879689388549341,0.5105589043233049,0.0016359201309554695,0.026473460569889192
75,0.2589787955936008,0.3887925883893067,0.5113346067911984,0.43775440987311587,0.4149312229113009,0.05445661837189095,0.7871650730040776,0.5067745120574974,0.1034866240694522,0.0368193715364738
76,0.25901718861009837,0.38880302361397573,0.511392494441105,0.4376937703705581,0.4149358676724042,0.0005251835147641036,0.7867914888442656,0.5030877448477575,0.13897419979295886,0.00019314761993043057
77,0.2617618889403198,0.39401861254641257,0.5157506075124682,0.4265267517686755,0.41411886452181745,0.07549429104322414,0.7834117463747052,0.4992945705979134,0.17034293031505215,0.027051265475594007
78,0.2618237722853147,0.3939955881952167,0.5158427552000729,0.42647984966820984,0.4141661535664566,0.0005550472154487728,0.780052349179646,0.4955964343948853,0.08287584817656928,0.00044661358584535704
79,0.26486904357973234,0.39002458872911044,0.5202693883468323,0.42396114296671233,0.4172122347329278,0.05624486199226121,0.7819226233566526,0.49181960310030576,0.11465528382458942,0.041553275652533875
80,0.26488717467800876,0.39001512389539394,0.5203024670039209,0.4239378139993036,0.4172206141367461,0.0002389231621150302,0.7837850843013509,0.4881360219323632,0.07623288090733495,0.00028329173627144753
81,0.2686863800333738,0.38765381534227933,0.5265047152079497,0.4186715806883563,0.4185006452370253,0.054221498606913124,0.7822816388739273,0.48437174838445735,0.10712382553384611,0.066379391609868
82,0.26873418152219813,0.3876282922595609,0.526574416663959,0.41864447876638444,0.4185379957702007,0.00039414800759475494,0.7807808433671359,0.48069865799920936,0.17760268882360802,0.0003852815311574838
83,0.28038020045099155,0.38224193501652126,0.5421391062045472,0.41602114742786916,0.42410426093657283,0.10201418202366076,0.7812854413376358,0.47686069107938145,0.09089340565301082,0.11037082613339641
84,0.2862193703870593,0.38077056931975284,0.5496054316615889,0.4175915021213765,0.4245859462578131,0.0648905628894855,0.7814896479078386,0.47291149521276515,0.02598003932728065,0.06516369291467626
85,0.2906120005163355,0.37990356686860005,0.555113028066768,0.4204148022840985,0.425481057375003,0.05217464498704882,0.7805208501901285,0.46888229958697164,0.05012798250580886,0.040701615221143086
86,0.2966241547864337,0.38497775281110264,0.5633507950623297,0.4272686262641493,0.427435223521848,0.09169817428613591,0.7792931734058772,0.46474365153965635,0.002122721218960208,0.051175763339294716
87,0.3049270742116439,0.38683079085678607,0.5755946237073895,0.4537144705247327,0.4390555721578523,0.09919590704218256,0.7805553445046036,0.460476606954449,0.12413445522405157,0.03517937868376774
88,0.3200598879820188,0.3840868400996612,0.5960785821092301,0.5122626478216933,0.45586381515597685,0.17297864621585224,0.7909436506945955,0.4559721926107748,0.10501068808310735,0.12344040881007312
89,0.33779204736091983,0.3798102359340459,0.6175702581716525,0.5832424787442663,0.4680993569874513,0.2415865068605492,0.8119610095836556,0.45122487977006714,0.002075362735261718,0.21842699609010616
90,0.3553961518493222,0.3808385240453169,0.6353606687820311,0.6453904936705,0.47163082853305,0.2596343465019748,0.836833442776662,0.44607383529442735,0.1460191232398063,0.27045359510318645
91,0.36494992952460326,0.38834815335483197,0.6419208753109795,0.684875224627561,0.4674936469392045,0.19714808132624584,0.8613025064283977,0.4404616538317059,0.18147261807319584,0.20521924873675007
92,0.3601705560396,0.3971748560619643,0.6317007516513466,0.699542096911396,0.4551039220460295,0.10682393915374028,0.885553003642233,0.4343992751909041,0.0037575053669473045,0.08890637780401839
93,0.34893264271138263,0.400752337772512,0.6137473105167509,0.6982607800675337,0.43745178669144996,0.11763785446090143,0.9084709966714586,0.42805386510927085,0.1134806135619108,0.12508549480870465
94,0.3271496108387254,0.4037578690021544,0.5822138992668507,0.6822650534002888,0.4193715245772259,0.17987229011342962,0.9292056094442664,0.42164016641255914,0.12071908795119478,0.09580681754648125
95,0.30524698721823507,0.3978942543394065,0.5494140480027219,0.650607004451346,0.3990659553459299,0.24944848654867421,0.9438385512573169,0.41540824616432703,0.013016652612244401,0.18346291081307087
96,0.2886318646911308,0.3917828025605952,0.5246877518293246,0.615043911133252,0.38646619626947215,0.26630755525937155,0.9492951353844449,0.40957725761282143,0.05881989264660734,0.19358914411578793
97,0.27277747309677425,0.38449402248192127,0.5023194913540655,0.5864991120320772,0.38049973195244746,0.24585894020524598,0.9498046504038674,0.4041547207203534,0.1096763933034979,0.2316397941835744
98,0.27308041834270647,0.3647210631747667,0.5006230287976887,0.5769100287720672,0.37940258861537546,0.20790653983058838,0.9480852684292865,0.39908764830292304,0.13501179653128662,0.27872998816208006
99,0.2934299685973249,0.3368302327801662,0.5235429940179505,0.5971781612857218,0.3831250001578411,0.30716778687646745,0.9449437767129779,0.39434828153779466,0.09038640314741919,0.42268652482942315
100,0.3249037731533916,0.31127103652573707,0.5612077706352606,0.6353587058100127,0.3992472636690257,0.3487521090788271,0.9354996339355552,0.39009566082697217,0.04179398665126409,0.42114315129897184
