Frame,Center of Mass distance,Symmetry,Grounding,Arm fold,Leg fold,Kinetic Energy,Potential energy,Bone length coherence,Torque,Center velocity
1,0.2983030626982314,0.7067818377272428,0.3487918370043093,0.935691453275537,0.16599992996036894,0.5442812166915781,0.7552108620117458,0.41999791704593287,0.677873146636874,0.5404814188859501
2,0.2455916803716571,0.7507211557022548,0.2885308611061356,0.9320298514008888,0.1352195731537895,0.5442812166915781,0.7552108620117458,0.6076671411748562,0.677873146636874,0.5404814188859501
3,0.23951678541393456,0.754863731350881,0.281130296298854,0.922895465583831,0.12407731048613993,0.20725427537843769,0.7426040206452752,0.7522230898211478,0.1939313679790774,0.06492730751337215
4,0.24799671436642282,0.7510828826176108,0.29630681688191324,0.9131297149568864,0.1592008978574953,0.13218051851911244,0.7275416888471662,0.8548988081638513,0.32995131732158933,0.1809100169769245
5,0.2817028213271075,0.7274945203213137,0.3381039198587129,0.9040833555865831,0.19399223272323277,0.3254220466374411,0.7160625219265447,0.9306276284098548,0.26649846676372335,0.4699404951956394
6,0.3345748462046824,0.6877787016163246,0.39652011728318914,0.9004510628307204,0.23037444626734493,0.5073406233670273,0.7070997399758085,0.9755395804792366,0.1660628769017102,0.6387057133555876
7,0.4006385911713766,0.6397226345983476,0.46396178613569694,0.9035054027894204,0.27119324823015484,0.6455261028557556,0.7014559020772,0.9997765324191238,0.0504796617561198,0.7998767662382202
8,0.4690774486612203,0.5939481272832787,0.5299716065798181,0.9136726819717653,0.3118800588678959,0.6711490544489767,0.6974577113490984,0.9996918045307093,0.07156383476690469,0.8350936467934127
9,0.53532440179896,0.5459568845229776,0.5924634773764311,0.9245352566606649,0.3436658930493011,0.6553663442309203,0.6968710617400959,0.979104674018753,0.2524413253566934,0.8280118808450869
10,0.5832119000049377,0.49831153556189534,0.6359069378864572,0.9385831233383294,0.36218581291900004,0.523055217769782,0.7023477035207428,0.9436203209182562,0.033609458262680414,0.6960999687656746
11,0.6345403991817004,0.4543108810902545,0.678862390137452,0.9523673471685012,0.38512915334944503,0.5380910551539878,0.7099735366228085,0.895314272719122,0.17115261173541835,0.6440974529139434
12,0.6728760860268724,0.41535562684104643,0.7087595994132615,0.9620384770020819,0.3964354442245506,0.44706206676502525,0.7198049928064689,0.8295090110473852,0.4511961377847538,0.5477289234776435
13,0.6849871112947932,0.3892490335852373,0.7194314283744893,0.963715316578956,0.40254577297030536,0.23404304392766928,0.7355858308818867,0.7521688319937119,0.24960975341613342,0.33431949819914325
14,0.6965931448838143,0.37511549138435013,0.7288912807803384,0.9600250602775668,0.40900048554694945,0.11728850437582818,0.7486433418427517,0.6742987043176908,0.13760789770450182,0.1162880580144538
15,0.6906243562772818,0.3792223672676575,0.7246493628364526,0.9570409747701413,0.40876823197827783,0.0746520895437671,0.7544656139554975,0.6024573873509302,0.007862074912417886,0.16584124724371035
16,0.6820356349159319,0.3902387435214397,0.716540917917162,0.9569439925622322,0.40492861927014284,0.08618747323752982,0.7577941093587353,0.5356144823297929,0.07736266869637595,0.14175328680018895
17,0.6630213485188002,0.40977169262429564,0.7011069863842799,0.9602273421581998,0.3953949358744056,0.1815646912192595,0.7597220292979735,0.47529012955522487,0.058556356276810176,0.25677568796308553
18,0.6345225020396194,0.43241822316557493,0.6788141255843612,0.9648816636966979,0.3845308197538975,0.2713154097315441,0.7599217651508909,0.4228244112391133,0.06134715603320487,0.38523405652937665
19,0.6063193810052436,0.45306485224159554,0.6560976092628555,0.9710932092704254,0.3747218690442143,0.2596939144161878,0.7589789315483848,0.3773813422424393,0.12058838633288005,0.3354020570036205
20,0.5831453862428941,0.47209939112090066,0.6356441642085114,0.9781640080784867,0.363808830886434,0.21235263092215673,0.7573875861947569,0.33785770183103453,0.09342792770163114,0.2763388372138561
21,0.5684957900639671,0.4920803337858863,0.6224143139334543,0.9827985406620794,0.35854358836280553,0.16812018069852233,0.7536721221737328,0.30480398993795715,0.1560385884265518,0.2895282186716656
22,0.5589178205227583,0.505796665275024,0.6138607625801004,0.9852939474171938,0.3561833667919763,0.10412306789808976,0.7489728325240318,0.2776529128001451,0.07725496059217414,0.20953765497380034
23,0.5548748894788684,0.5163200217717324,0.6114528976536815,0.9849086740195341,0.36809570058197316,0.07665849544221778,0.7460500867729689,0.25538657077744387,0.012147995847813026,0.16900214163688052
24,0.5370295047506735,0.5320349266551387,0.5956382124241957,0.9820799301536817,0.3575890606795736,0.14733194475131892,0.7466565696777646,0.2363952957851625,0.16212708165426146,0.17274340089317858
25,0.5302573776781224,0.5379096194357169,0.5905543461652741,0.9778674163342269,0.36270254994134543,0.06408662526210064,0.7484427530526854,0.22040410934204352,0.09584989548242583,0.10878676493347882
26,0.5315652529101709,0.5364230681581484,0.5928227801605434,0.9731854400954437,0.3649622670424091,0.02123831650495937,0.7478321593564103,0.20654746086116718,0.010278601186818937,0.016868499683889593
27,0.5418791365975445,0.5274988493243971,0.6037144809747489,0.9693253651512156,0.3744270810238153,0.06996833833258419,0.7451644725704984,0.19384276888042185,0.014724563798914602,0.06512324213970212
28,0.552119621882109,0.5169738966840198,0.6142683299173186,0.9652209498692917,0.3834838855078146,0.09390904759995994,0.7432418799617049,0.1815031333871518,0.020423706265320564,0.13960087613012154
29,0.5751353449642651,0.5049832207397575,0.6346949613310634,0.9599693617012468,0.396762331602216,0.18623976421498725,0.7415894350356406,0.16940670217757478,0.13903744373474825,0.1781307626252609
30,0.5783619249898768,0.49764126912899354,0.6388081738000302,0.948813857135611,0.40006036939039497,0.10921943744184043,0.7429820728784338,0.15795403628782717,0.3948372895454729,0.19159973110420628
31,0.6165176931168802,0.4800744921795421,0.6678902484014183,0.9287775143174051,0.4021322279031032,0.38307314860482927,0.7450984994274854,0.14738461305442155,0.02044175204827285,0.5106912635117115
32,0.6400372210966887,0.4593091035361814,0.6843162846367316,0.8916925310245958,0.40203885006191636,0.33733597825579503,0.743811470462751,0.14009659403921135,0.156074266906664,0.33890055868690416
33,0.6739367366555226,0.40892396382231894,0.7084163848135028,0.8417526585696401,0.3991013177194903,0.4683228120190076,0.7378385656810813,0.13479723471333396,0.5336141597971592,0.49161147352965967
34,0.7452121669474764,0.3136759672912474,0.7635345044434335,0.7841423368597866,0.41579030012054347,0.8433311353540743,0.717319881427091,0.13587781858929773,0.9999999991610187,0.530008613237098
35,0.7419850488338762,0.25484468268861615,0.7622528124224573,0.7279680216139637,0.42513667041365233,0.4673528859849045,0.6959554544599936,0.13633319584895967,0.04459752053377768,0.4208178659813226
36,0.7575008106924968,0.18123713343156664,0.775010742622852,0.6769299522011925,0.423756533405263,0.5070231672897232,0.6825009225864385,0.1328373609105703,0.3551497803940076,0.2644418053347735
37,0.7641076206802689,0.13583280531345698,0.7790435141700057,0.6293084737861253,0.43048063105995227,0.36785601520284866,0.6716276550597136,0.12445166686400481,0.14203726063619423,0.030847934633004302
38,0.7904094158331353,0.0940745077906226,0.7955982558802228,0.584339425127434,0.4300031659523202,0.4133819055607628,0.6628051418217015,0.11017709790990536,0.005797304683986507,0.03496559249433139
39,0.8110843456296817,0.07217760744052056,0.8082757451587892,0.5366408270080528,0.4375059879972654,0.40895105468907206,0.6508476919833885,0.09510145645492471,0.4272773039168781,0.16442481740279316
40,0.8638702547202369,0.06973820941974224,0.8385215317624802,0.48444799121409926,0.4557648246747948,0.6733441415082538,0.6339973143809907,0.07727803984266589,0.273522655072362,0.6378934905677768
41,0.9433731486049175,0.0786654047896898,0.8850861000390571,0.4363168040285933,0.4967552660762067,0.9999999894159776,0.6039049289509936,0.058072619049394945,0.3144359050190286,0.9999999549914086
42,0.9807540660904668,0.12517919945626496,0.9105483331586326,0.3947395528765097,0.5281764913772713,0.9114879302561532,0.5744272862118851,0.03733484395558077,0.26021793994936154,0.7943325936718844
43,0.9776584501325202,0.21258818876129568,0.9148117020149947,0.349737876263684,0.5180971782753239,0.8009547502127786,0.572755845110864,0.014984872159762633,0.42952494243752143,0.6625360706914698
44,0.9653535325222361,0.31927842135293777,0.9066603552707362,0.29651607290291954,0.49135687669823225,0.6259372457797214,0.5753814761911363,0.0006861352612062152,0.196628538004399,0.21022171822878935
45,0.9537300552198676,0.38653871238355053,0.8982140584798097,0.24883524742048208,0.45689350794866423,0.45799857432828317,0.5514941094157957,0.0,0.0,0.29198801388530243
46,0.927863920782145,0.39414780816693484,0.8823350205128795,0.2201902734206074,0.43716224374189433,0.3549283409813716,0.5169579434998667,0.008493466358816811,8.244774411173342e-05,0.36958520769733055
47,0.9091645057096066,0.3682410420612159,0.867501714529579,0.20787963690720235,0.4088092627848243,0.4243147437531437,0.48318759215941,0.021021938426602237,0.08222046177966578,0.5801999965569287
48,0.9058065922787737,0.30460862356398904,0.8624124855425346,0.20309414183644345,0.40767528808053993,0.43009062525812525,0.44583388138243224,0.04154225566175675,0.07564472679025412,0.38406829890441596
49,0.9202175557077126,0.2562562365271327,0.8684884565038721,0.19143332049528905,0.4197604382263285,0.350820045519113,0.4171508848775479,0.06587945647990676,0.05146665347304091,0.2643079661647259
50,0.9329876393098174,0.23487744115773185,0.8755672576238865,0.16056746375806374,0.4418166067679792,0.2554073959568967,0.41361018986090714,0.0840118327281365,0.014915794935506968,0.13189369081058905
51,0.9516908162267658,0.25110798363770404,0.8848555027298487,0.1468791781430554,0.4609857328399146,0.2447276043471547,0.4273409298129231,0.09446314920815281,0.03202624854448028,0.26506153602029137
52,0.9417398526270956,0.29229911139903686,0.8842763280927587,0.14646681269546072,0.4694717295760893,0.38556919893933056,0.44502059294532925,0.09888895753811397,0.36902191906629733,0.26380711973116605
53,0.894651026385409,0.36642641323011615,0.8585566840233755,0.15602506546955902,0.4360575407066802,0.6217073035635845,0.48136619420969873,0.09478126569273683,0.13318984304503464,0.346984239193638
54,0.8365630469265026,0.46954983257940885,0.817912567592633,0.15560227680220362,0.3679330410793631,0.7288156622331723,0.5233717274678485,0.09074674959817224,0.4303306751568081,0.25193280397323226
55,0.7963926496194078,0.5417445523002605,0.7882405928979092,0.14530447728744786,0.3156036175786368,0.5192696106819681,0.5276475768783365,0.09679923381444416,0.3883453842547325,0.2940234295024774
56,0.7718397222726049,0.5605352914952056,0.7708921674257472,0.12426545243979152,0.3072593376750328,0.35245345200354555,0.503393322960447,0.11198387692017892,0.004251924031360904,0.5167704249299077
57,0.7457275232260988,0.5338886776605899,0.7549058748963895,0.10858355458114187,0.3085192221300579,0.4482388781057103,0.4785188350076178,0.1310578249680187,0.006418176529097866,0.6687434254723205
58,0.7334979979861735,0.4781103591475234,0.744759593291038,0.11025186895117138,0.3162597336425108,0.5304373207959402,0.4471793831877071,0.15696550350732727,0.314978192251397,0.6831529581935888
59,0.7302996630807144,0.4305622345133541,0.742265924714668,0.11479140114016324,0.3279342355910796,0.36797789733835545,0.4250230766473758,0.1822249552879321,0.08042323370814085,0.3291180723766568
60,0.7413096777297231,0.4182622202564319,0.7429630793704162,0.1174525086549914,0.31951359076909014,0.30050869728805757,0.43330567715198953,0.19744306280064527,0.0005225094344922863,0.2867545020188764
61,0.7637761682879188,0.4328902488899148,0.7555923040959069,0.13064990866135487,0.3306524866303246,0.2804365854358499,0.45428127841436555,0.20587488119162767,0.14295991110791575,0.34584924731959815
62,0.7597894023649784,0.487993914461394,0.757785659897486,0.15639059066561894,0.353763423312683,0.46051922955711044,0.4885358204280921,0.20586801364169233,0.22441294017207128,0.23272311982693078
63,0.720490805763744,0.5796236458679063,0.7315082921034892,0.17784063971309882,0.32965506595518584,0.6288015948356604,0.5401178996213238,0.2013899325554753,0.02230871964528568,0.14468713846370373
64,0.6759254511642252,0.6716935295811284,0.6944572035139601,0.1779624498291787,0.2592715913563844,0.5969187401876522,0.5691515816235572,0.20140440486868438,0.4396794310568659,0.16084061235255823
65,0.6447638049757974,0.7135997547282147,0.6682173748168235,0.17733837043136746,0.23156660121986697,0.3693191732067772,0.5642220441635362,0.20885290128946396,0.2300004668046995,0.21232266669753314
66,0.6287981231449405,0.7052697264624548,0.6564837256875823,0.18349034758089636,0.23737957911349564,0.31115068779129046,0.54543121110872,0.22178012315638884,0.022824424811838252,0.5002705560640748
67,0.6219017440868491,0.6523999454355106,0.6523758759467232,0.2059344150205751,0.26054372669014586,0.44643418265551793,0.5125180067793673,0.2434813584768896,0.0023420652322528623,0.5661239147717843
68,0.6242311619201042,0.5976116240776217,0.6524616795966742,0.24737127626054606,0.2777400334766305,0.5121673871774927,0.47855136984243885,0.2683950769120127,0.027413570397987006,0.5081685389771126
69,0.6291000441755259,0.5514354283088976,0.655786571031819,0.2843414886584159,0.3104970455251144,0.5478281415024021,0.4706514764567705,0.2894401728918074,0.036368359949307934,0.3914380435750147
70,0.616233520852649,0.5167068472372905,0.6449216838582279,0.3459889974726417,0.3119772562781174,0.5274906846111228,0.5004123525909472,0.30431788288634826,0.12267602687879817,0.24724529686689822
71,0.5932339679448118,0.5099260867151065,0.6245325915413433,0.43034259908980477,0.3122056680823789,0.6235916101028247,0.5537110130529653,0.3135981352973338,0.3443867510882439,0.42861529108151475
72,0.5527915373950464,0.5319706639741345,0.5880767657732728,0.5295185955711426,0.2978293214470656,0.7984307952149282,0.6211287525386683,0.31587004412852066,0.03998636852809166,0.42999939373539403
73,0.5087671585719059,0.5684308503038881,0.5465156228337894,0.6266813999707291,0.2759315423373914,0.7723621632251495,0.6904223295239186,0.31390175281172744,0.40271266917652404,0.4050608513927488
74,0.478543602422853,0.6079030505377354,0.5155244170212443,0.7161552771172897,0.2570758691140985,0.617055203616068,0.7418971840961579,0.3104093710831295,0.027328437550607522,0.26292125966940144
75,0.4376010775333008,0.6463573691773857,0.4779531438039617,0.7867242114680202,0.2492207826070543,0.5926910802001895,0.7755678986374961,0.3079278016713431,0.007567085769685642,0.45662280972856323
76,0.3928665763845431,0.6817418437821422,0.43642953996133843,0.8492648701770109,0.24360295227378287,0.6180330430103217,0.7973230796689634,0.30657347119315703,0.038064065510466545,0.5360693703776448
77,0.34219599757043984,0.7245171612629864,0.38422338170122644,0.9041011003118512,0.22733001023711671,0.6316940256972057,0.8086305991259362,0.30773539643919684,0.012402395117498976,0.6487921368127413
78,0.2847622888220309,0.7709476915816412,0.3232706138754124,0.9471977674249991,0.19996661078355915,0.6886154770100597,0.8088817518257424,0.31215556027834346,0.015983482085441116,0.7663261865279292
79,0.22039162989761896,0.8193664782374365,0.2494204849180541,0.975957505369357,0.15316631328905958,0.7416503771051192,0.7992009935162612,0.3203532004142014,0.37254409965514246,0.9031614685452533
80,0.16791406936543965,0.8465398696484479,0.18773302333963174,0.9916838197390814,0.11193747451712624,0.5722528034005024,0.7815698844491131,0.3313375438167364,0.1534435915742542,0.7089955401072081
81,0.11900602712202493,0.8625271049428301,0.13263635462219253,0.9936193800762586,0.08926989928256832,0.4961832501804313,0.7662103081628492,0.34455703868197846,0.6270727762081968,0.6219547045631484
82,0.10505047346037102,0.8632612547686815,0.11558824192482134,0.9814950852554726,0.08249810631177296,0.20326888194120593,0.7588085549244057,0.3582350727424173,0.05127724490976958,0.18336785527885932
83,0.11504702240484471,0.8518641384533445,0.12837298576581524,0.9686141186064524,0.08199487666870983,0.1825864731971143,0.7495948359966358,0.3736202001465553,0.020465669276364604,0.20350301900058193
84,0.1416980173578583,0.8332143398854853,0.16417455870310552,0.9588104984461638,0.10651268483662892,0.2421511806623455,0.735820776187925,0.38976316224552204,0.10928965777850126,0.34217186215536216
85,0.1789420771195483,0.8071414418188001,0.21065868605786933,0.9527035589534261,0.13365308553865402,0.3640496840610273,0.7242326059655292,0.4054667469017409,0.030370174915628868,0.5399163568497813
86,0.22210790777986195,0.7857498230412557,0.2623232087777212,0.9497509361992758,0.16471066082544109,0.43811365987693457,0.7149369341327524,0.4197529874914957,0.21423206718303475,0.5773843817198984
87,0.25495043754179064,0.7588027376498899,0.30335880436131324,0.9498022570323005,0.2014674863839368,0.33094340491707774,0.709835125557349,0.4321743454371619,0.11119314651054896,0.44566456133760624
88,0.2995813479715377,0.7344550526674242,0.3533447931792317,0.9531742401575273,0.23245219635349165,0.4475145253979336,0.7053642456036867,0.4426710981246909,0.19704476593485287,0.4895899828066274
89,0.33195698269647006,0.7066267056809254,0.3882990550733633,0.9564094737266836,0.2585697409273912,0.32517678729842586,0.7009733070679253,0.4513974600874072,0.011874987620367343,0.38731836799557967
90,0.3660203701502092,0.6813397590637895,0.42299054328954927,0.9597699335887715,0.24629310785763633,0.3769644827092251,0.7018475870401616,0.4575390773509837,0.5368627810312216,0.45646184754438407
91,0.3760666888264038,0.6593172039776668,0.43523901431842105,0.9624573111021324,0.2636219994890432,0.1375013002982893,0.7081204040132839,0.4616495253178414,0.171986030681824,0.2749148536174342
92,0.3783905395096548,0.6502643127377519,0.438644346675394,0.9639923412809399,0.27025019884243173,0.061428980870515175,0.7176605300304184,0.4639900698371992,0.02062455747276476,0.12922173124435285
93,0.3674553686136013,0.6428449607719627,0.43010152077828584,0.9659514164373801,0.27336202347175464,0.12249709349850911,0.72801585011542,0.4650889075813507,0.0567908016125583,0.21037351024107268
94,0.3936507019864592,0.6328937226916161,0.453209516252641,0.9690863969463145,0.27281945564178345,0.21919032109350442,0.7306698646116073,0.46586479178037943,0.42443502462075716,0.20581085580976072
95,0.3888898866440297,0.6319881910837867,0.44908557832741336,0.97216756360615,0.27023033285091286,0.023905332919171504,0.7278156654578412,0.4666094315882622,0.1441444633358814,0.02461969097041146
96,0.36616741588092294,0.6410399073730835,0.4274684212707663,0.975671183108146,0.26263374383725074,0.17105034204437425,0.7305064541877596,0.4674029584354215,0.20087511937411992,0.13036430956595246
97,0.35840597318816203,0.6515791432425723,0.41868963533632686,0.9783245076371325,0.25927537044247134,0.06124761198874278,0.7335528083810346,0.4682298272564966,0.04836012321323348,0.10446966273644002
98,0.35710172754196196,0.6631156893311808,0.41644265225353405,0.97874033470048,0.25555617390388247,0.06210256251965712,0.7339310317044425,0.46929483643045083,0.05290058842523962,0.15638908487831332
99,0.3498501507312143,0.673954630489176,0.4084575500810395,0.9796212670741019,0.2457070829062053,0.056590627273705514,0.7352447453820461,0.47060322765712925,0.029381208031163838,0.10142901363020328
100,0.36270136398218766,0.6749713519853541,0.41923127087657186,0.9786442779280559,0.24212161265504054,0.1099099229694449,0.7359959089220774,0.47214016424053645,0.23522415319211357,0.1669187718713548
