Frame,Center of Mass distance,Symmetry,Grounding,Arm fold,Leg fold,Kinetic Energy,Potential energy,Bone length coherence,Torque,Center velocity
1,0.35995851646556454,0.1406004098100005,0.7803103228621818,0.11795872781735282,0.6858089328496105,0.11384354437226477,0.5298142167591622,0.9999908136510359,0.008288708004065766,0.19281992356934022
2,0.37816596387996687,0.13916422774955323,0.8028093356135925,0.11520597848804055,0.6966431924680468,0.11384354437226477,0.5298142167591622,0.9972978253455972,0.008288708004065766,0.19281992356934022
3,0.3968524636617896,0.13839562385487697,0.8262672246249877,0.11146754111593704,0.7101487116219078,0.1199180252430537,0.5346224160608926,0.9942474753967026,0.0168474678855975,0.20647682254961325
4,0.41858812106791077,0.1375952240919886,0.8520802483100347,0.10703909929753429,0.7242884804060149,0.144249936101113,0.5403027303608632,0.9900055604621538,0.013887700178367057,0.2331738625863437
5,0.43993934107469534,0.13711943741990126,0.8767643026753367,0.1022542944108575,0.7390464273121189,0.14569316798712578,0.5470145912873383,0.984907071154166,0.004017521432874011,0.2436389011678243
6,0.46304660331158887,0.13641490045102067,0.9030128393595582,0.09714104965170003,0.7567078975090002,0.15889120470908266,0.5543208624400604,0.979169064583189,0.01942027275321074,0.2563681248106834
7,0.486872374165053,0.13615245042824714,0.9282501634577162,0.09169962483376196,0.7721004843546951,0.1583640747741497,0.5615784595408639,0.9729579486720741,0.0257682526554943,0.24854504537090238
8,0.5114709386387425,0.13671598380146166,0.9522108550303909,0.08586268274365012,0.7863872323227119,0.18460330277228862,0.5696129356930619,0.9659808404350233,0.05032958064491276,0.283344680515634
9,0.5350566032388411,0.13645810314955292,0.9734743566553841,0.08001548753302092,0.7981240950061708,0.1724490882312038,0.5782650363986797,0.9586377862436425,0.01687229698573746,0.26975154685375397
10,0.5585976134399058,0.1359727558035983,0.9939864581702073,0.07408989851807067,0.8110224810537843,0.17018877657083328,0.5859933626494814,0.9512100855476207,0.0030541350537198176,0.26033662162730375
11,0.5840424461479644,0.13453457730543641,0.9852257310151176,0.06784763274081786,0.8212534911845708,0.1855042937423928,0.5932231354759053,0.9434280338274315,0.04804129062988713,0.27628336289333816
12,0.6051936121207829,0.13471728340440228,0.9687715639260879,0.06155003096783327,0.8298676846255588,0.16838161634884324,0.6005317722655737,0.9355541034988573,0.008302172579157571,0.270318518839435
13,0.6278744279428004,0.13357034964066022,0.951580949962914,0.05553548864101163,0.8404378028413719,0.17242415833785849,0.6077972054523814,0.9275690332273262,0.003896936673952127,0.2718395412362509
14,0.6525372871321239,0.13174815335394915,0.9342725792660587,0.04965317052670489,0.8530881352821544,0.1812963953482123,0.6141729544062159,0.9196105639354024,0.033807638479833285,0.27844637525863297
15,0.6776660195659181,0.12845784037251098,0.9161847711414958,0.043733797567767616,0.8640464343753645,0.1790784123668581,0.618854299801459,0.911693816528419,0.010926690357253313,0.2855476160657635
16,0.7016256986859598,0.12535801916706557,0.8993586423063901,0.03745860007102702,0.8780967638238006,0.17934302132206945,0.6236226245011675,0.903702134031291,0.006021219484330441,0.2947558482697668
17,0.7263409290185505,0.12162223299765493,0.8826184945784165,0.03136911954727004,0.8911390197867017,0.18161173734425695,0.6298135713026154,0.8957058184020655,0.009597029186948585,0.28950250539457384
18,0.7503545389986092,0.11778935687072133,0.867919463567613,0.02479827523107436,0.9048699059791774,0.18376071190476378,0.6363237721682459,0.8876990195054766,0.04509381674625763,0.30503402201540514
19,0.7717652089719857,0.11435998826034556,0.8559232299680009,0.022726007371204116,0.9173062166991451,0.1651303680461323,0.6430189807962099,0.87978069202426,0.02052840130527738,0.2783604050148404
20,0.7921654580547595,0.11220033693993284,0.8445251258093165,0.026785488062024795,0.9289894797137022,0.163562223806015,0.6489735470822714,0.871977292297584,0.07418026773636952,0.2653834722288113
21,0.8076519261465218,0.11021506319478623,0.8368821530469579,0.03181175574914447,0.9349476397499618,0.1330665456688071,0.6548042000543871,0.8642892428675002,0.010556676652810463,0.24213610259270457
22,0.8223236193202489,0.10936997394070418,0.8311102039419984,0.036971092531875,0.9387075858890446,0.13678838049105224,0.6609089422665122,0.8566603580352574,0.022966170391013188,0.22990438374090502
23,0.8340960565231046,0.10870190104673841,0.8273756332452079,0.04195278082965316,0.9399185972681552,0.13158759007804519,0.6667448214697318,0.8490704591136695,0.0014676691234486497,0.22875027701623576
24,0.8456131162798121,0.1082625075013627,0.8235793804498167,0.04629774510904617,0.9403142224341423,0.14299977903989144,0.6724675210661957,0.8415664158653033,0.029930728012386536,0.23769294910245164
25,0.857464271792598,0.10713573193821456,0.8190504190892877,0.051523342113621334,0.9465810641009255,0.13584763764101987,0.6775859823094291,0.8341176398358413,0.03312871531566849,0.23358864893847797
26,0.8650567385060206,0.10718203220732118,0.815992482322544,0.05667850425465074,0.9534539133551317,0.12425746102382552,0.682425020336993,0.8267546357135173,0.016835877618351945,0.21337368371118395
27,0.875313992552473,0.10563345578976624,0.8122410892352246,0.0625857017090301,0.9606568153000873,0.15593926269622724,0.6868024286987358,0.8194077565603085,0.06016439871080818,0.2662555532517028
28,0.877533948057138,0.10594668242159905,0.8102280098356025,0.06798359184112701,0.9601951503351508,0.13436226245322389,0.6904023167104848,0.812155210509722,0.05609775356585678,0.2219949127516153
29,0.8829471030513145,0.10468423728733942,0.8062971779160012,0.07348481500951524,0.9699283475533237,0.10924716029379965,0.6938153972871683,0.8050939759253485,0.0027312360656077746,0.2019066250304559
30,0.8925663617755155,0.10110569634845094,0.8003121451977177,0.07907725934151974,0.9808002927046028,0.12578691167429332,0.6973321746154787,0.7981860124124301,0.04076633704349545,0.2196330559749306
31,0.9018789403340174,0.09853962773943767,0.7942299164452776,0.08487959082458181,0.9927891811961921,0.10964180278770735,0.7008042962804092,0.7914225555813453,0.042315249757098106,0.17735918634106135
32,0.912274170960922,0.09428831370522815,0.790437401958898,0.0904301458018329,0.9999998429679564,0.14916260757657163,0.7048574079994924,0.7846438615850075,0.024579182633110968,0.24536912802369146
33,0.915198311363743,0.09176349248173943,0.7915233807250798,0.09625957621131319,0.9981205523747718,0.14020393108223686,0.7095692648636366,0.7777942733049463,0.003881282183353708,0.21802599961602162
34,0.9148495276306351,0.08857189698358489,0.7934430023995571,0.10278157193750698,0.9938334368497197,0.1455894445593352,0.7148769273132379,0.77084163216913,0.005144207688953645,0.24046702066662715
35,0.9196555216855831,0.08285982995637237,0.793555151669734,0.10983373846448467,0.9945243823416926,0.1681990965645455,0.7201793071114407,0.7638325590355045,0.040549066833365725,0.264338422022341
36,0.9186477962546926,0.07882613555380233,0.7949887931734552,0.11663479013371546,0.9925671852086416,0.149761323629342,0.724771316375795,0.7567739931921005,0.05296945407224562,0.22673291147738872
37,0.915742628805548,0.07495932701495708,0.7971457974698035,0.12328486413778271,0.989654860585647,0.1264957307766948,0.7292189804906036,0.7497152272038249,0.021301300683763166,0.19533628633397354
38,0.9138474430984664,0.07017981270125183,0.7991196246248686,0.12985448446916548,0.9858535656918623,0.11775927251027801,0.7343495675367683,0.7426316249481861,0.0,0.19897808949575987
39,0.9130238895166309,0.0638080708523667,0.8015140115430827,0.1356840860318342,0.9818619930701642,0.13289810746564867,0.7398815126049711,0.735549164544334,0.0034226117198447163,0.21412990572344764
40,0.9140238049853706,0.05657337092065603,0.8045831632368456,0.14085406303864786,0.9730252574825986,0.1363345824635116,0.7454392885625606,0.7284594504454198,0.01454800486826701,0.26836995287924104
41,0.9168275187637765,0.04935285327039398,0.8093775445367833,0.14560862818847517,0.956475327339958,0.13170966073391946,0.7516677105293686,0.7213356992200607,5.663573284005968e-05,0.25348254381466906
42,0.923853414788445,0.041401880169096315,0.8145999622178829,0.1518670971654303,0.9348075844143597,0.14626301466694594,0.7590475574890714,0.7141501469660961,0.004071768407549962,0.30403093006226506
43,0.9357096772153419,0.03399757234558821,0.8204392008849423,0.15805522313893203,0.9064947836577216,0.15838566278222663,0.7672803961326543,0.7069299184275973,0.0004896967288476503,0.34918119366611206
44,0.9509335607180949,0.028400411168803562,0.8297195529918459,0.16304659847881925,0.8689836679666205,0.1751230353044059,0.7760598671180153,0.699578007406299,0.0651499947362375,0.36868430988628575
45,0.9715120447502675,0.0257745783050088,0.8416298054843208,0.16767168347077327,0.8229621080265943,0.22050988755895534,0.7854767075824837,0.6920092751966912,0.004805588991673054,0.4005637490488293
46,0.9893079815747632,0.023704744554899335,0.8545961302709417,0.1727371969575478,0.7734168768535495,0.23277914176914227,0.7947881968811004,0.6841689793305669,0.033042997824979735,0.37270848384944555
47,0.9987465977846516,0.02246388961687949,0.8666652608961632,0.17755471788290325,0.7307129678304569,0.2208886380008964,0.8034489509311337,0.676117372657969,0.11054055031282331,0.36045077011467774
48,0.9999999938596313,0.023877324434245464,0.8788147651650177,0.1820174760647741,0.6961107771492523,0.1768926102094393,0.8114332267911176,0.6679451610195312,0.03785826017211026,0.26198944842621585
49,0.9906264983357145,0.026206910484409963,0.8924633313451951,0.1875572830191427,0.6649008094917792,0.1699111566344804,0.8187398141488346,0.6595996946625722,0.01669982617556709,0.2125732198161323
50,0.9753060942083013,0.030201727911968214,0.9065885319236073,0.19496823749620937,0.634861316737928,0.1679871763667101,0.8251241828580866,0.6510881446455985,0.023275370439377555,0.1495202564525176
51,0.9526775212263282,0.03633979475319747,0.9216464405989695,0.20666438486453326,0.6024830552080542,0.18686993991482864,0.8309306834075366,0.6423991316599907,0.008210328054424112,0.1308862143777867
52,0.9274670762049518,0.044434236082325,0.9374071513674235,0.22058852359652173,0.5709360390893918,0.18664347986727284,0.8360860613559092,0.6336313094784685,0.07014250768317257,0.1005048596388135
53,0.8935860583067823,0.05477026932562665,0.9562201914391114,0.2340807873644623,0.5392785950917044,0.22179428673489804,0.8402511624435066,0.6248199380136745,0.0692045091719436,0.14892782992532302
54,0.8522220677798483,0.06707257938532855,0.9786350922378935,0.24471057548102373,0.5028711757311973,0.261722375493161,0.8445288308407082,0.6159475887798624,0.03553637681572514,0.21286019748472948
55,0.8083697363919362,0.08083327540332097,0.9971079461900548,0.2526406849364894,0.4697608172765492,0.2560612724843132,0.8492243759640893,0.6070983266211868,0.0658160319617637,0.22043706738501612
56,0.7682500247778702,0.09393380256683265,0.9746201483656634,0.2580326796852422,0.44468555011034083,0.23866136841841593,0.8537706822621323,0.5983684283928604,0.06539327524414419,0.235241514256601
57,0.7317268578715973,0.1067928833249065,0.9527846854627822,0.26224891805196654,0.42709823451205764,0.22308607283354095,0.8579532717530279,0.589848675354314,0.07207952526866017,0.2485569309517634
58,0.6993272578286861,0.11804543284019768,0.9328707133888868,0.2647736526373462,0.413176128730867,0.20389065774807588,0.8613236768342905,0.581608801424193,0.05637294865913884,0.2373452195834137
59,0.6687189135801047,0.1298740420308584,0.9129604796239925,0.2671177920355378,0.40196545087384195,0.18919418077723202,0.8643575626715013,0.5736241201101056,0.0712402990103875,0.22914739970879852
60,0.6404776619664972,0.14178081424064484,0.8937007116261106,0.26913065709222794,0.391061772729753,0.17032717963382177,0.8677055553954294,0.5658821890961498,0.12297229240791545,0.21110369209168792
61,0.6173156127724598,0.15171282981802398,0.8777829918794133,0.2734020446347566,0.38458177699581364,0.1325917864813383,0.8709303803481806,0.5583852472989769,0.12710202308732496,0.16121260873710055
62,0.6013396993913466,0.1597211538273869,0.8665194668449391,0.27830245693203337,0.3827021019022672,0.09585753523642404,0.8733512441722641,0.551116946578909,0.010097888404216056,0.132663761466179
63,0.5863924097398725,0.16762739003947744,0.8566634151511464,0.28291843024258956,0.38496084112469797,0.10377355198693508,0.8736351324473836,0.5441288192951192,0.0480643456317962,0.14958208253504807
64,0.5689742844023201,0.1770504188030042,0.8456540951290669,0.28743062032812705,0.3899838339547073,0.135323444453132,0.8718798904731461,0.5374803377886234,0.01634483550165977,0.19243293604868678
65,0.5483126208849868,0.1893619152465539,0.8306410461617713,0.29304434257771406,0.3922884089408921,0.15226440989434664,0.8700267313973784,0.5311534703006056,0.06646768749327399,0.2293962851232499
66,0.5287984901454466,0.20082928959191115,0.8168896764839382,0.2997946746152481,0.3941247175429018,0.13564148391817443,0.8687697694654994,0.5251346698964364,0.026722602942053714,0.19311032752042248
67,0.5071092113678963,0.21499520531858984,0.8005700885191187,0.3073334094231219,0.39679024056133444,0.1616938089758491,0.867159912946804,0.5194518822044514,0.0315431052246812,0.2446360606504426
68,0.48702154935566383,0.22887337061775956,0.784401902069033,0.31547689425094694,0.4001604588180479,0.15689716689894231,0.8647214287522306,0.5141206243370066,0.01082212882458241,0.23757153690166397
69,0.4660786023392022,0.24446350550542306,0.7660897954041216,0.3251248173020461,0.40239092529266557,0.172404795878866,0.8621964848476543,0.509130674917563,0.02460477077428672,0.25494158455371346
70,0.44201089084368517,0.26085326193000447,0.7424020003888683,0.3359420840306687,0.3994529251110456,0.1966459748878101,0.860175597257093,0.5044489022427942,0.030810572406602878,0.264074485140995
71,0.4212578046683897,0.2767053508646267,0.7204618648338283,0.3464368918220495,0.3962976343130121,0.19138184484135407,0.8576492818036431,0.5000920063100105,0.02795990169337798,0.24422312222974266
72,0.40109553543654314,0.2918971588942664,0.6983740660730557,0.3555293370003303,0.39254153748821435,0.1882643852775211,0.8541377726893764,0.4960366321169837,0.015905286969942506,0.2462253827229102
73,0.3787209557379365,0.3072564739385754,0.6730918822668313,0.36401535901345955,0.38866087580117065,0.19399144555124387,0.8509143567730412,0.4922706649124903,0.05079047471102068,0.21986319064264268
74,0.35910807591311333,0.321630779760891,0.6487311916305324,0.3708524059204303,0.3860255983716645,0.18125229527467718,0.8471145752650703,0.48879529763902424,0.018328002194639374,0.2137243326166092
75,0.3390810222266674,0.3365106291941356,0.6225499445084105,0.3791903870248974,0.38402892092629853,0.18642202805589891,0.8425655479692978,0.4855827886041023,0.06429441623094143,0.2204112209372745
76,0.3184083309792056,0.3511774930977175,0.5951051489423282,0.39104877159325324,0.378347332840576,0.17154080022562093,0.8379451483921868,0.48262094343835954,0.014789840153563445,0.20620651384110233
77,0.29704763751026114,0.3653439050292419,0.5665108233569655,0.4012034272082843,0.37326606692409836,0.17896806779448657,0.8323714644095282,0.4799186301366999,0.01203245969427669,0.22089248322333
78,0.27218368056846115,0.3802400682809869,0.531828661555653,0.40947482801922336,0.36532380186735397,0.1926122842811198,0.8267872992142055,0.47742541239298203,0.16959002135092097,0.25220512782715476
79,0.2512090785508859,0.39036332113158734,0.5013726580854021,0.415588104665264,0.3553341744367511,0.14573846540079025,0.8211043518738512,0.47512115617512185,0.20012074945410532,0.15186993989048864
80,0.2353622509089731,0.39749465450755755,0.4772362659894517,0.4200858571017195,0.3462476963861508,0.09856391106200532,0.8147001489541424,0.4729932583717782,0.09444936577179443,0.07413868340664088
81,0.2239872934827057,0.40076475524242267,0.4604792958709543,0.4226321459875306,0.3410605907862068,0.0792925663359468,0.8079716253351141,0.47107522316607847,0.04836541939979273,0.046295586160389965
82,0.22125403132699492,0.39976491357445365,0.45798210545507945,0.4239598363631595,0.34346881038340077,0.08744981707822948,0.799529880284719,0.4694140906101304,0.07890080427573441,0.0985784129551632
83,0.2231843695319948,0.39832064845950355,0.4630755514754837,0.4241406086938682,0.35289156568013375,0.13024907899540128,0.7880005035777753,0.4680657864040109,0.09145533554458112,0.15611814077702516
84,0.22556313820814075,0.3975919983461188,0.4715895502361915,0.42297105098371485,0.3688153572214412,0.16652476354618123,0.7734973622315106,0.46707679400353636,0.07740509824451956,0.1745835890965542
85,0.23206353638163163,0.3963063145535824,0.4880082033896654,0.42071728456018864,0.3904033583033464,0.20745278039099824,0.7561433246297662,0.46651008662495036,0.012802648347230992,0.223252680628974
86,0.24303763609953022,0.3923412577681381,0.5116474003878405,0.41644016338306794,0.41700775506201604,0.22166770504546346,0.7367664840651865,0.46638361853396915,0.03733420394433869,0.18538349166072252
87,0.2594721452029788,0.38529780447788625,0.5433632139930508,0.41013006759724663,0.4477108791306628,0.2437809009366545,0.7157539216584474,0.4667250747598957,0.0433849642306847,0.1881658282542387
88,0.2784989878625552,0.3768251551640143,0.5775407040785803,0.4018794787027502,0.4770784792271588,0.22902369694189836,0.6944926222097775,0.46747747192638484,0.08477756304162,0.19213081569005638
89,0.2953765456233683,0.36814987826833356,0.6074079238804196,0.39122902518931235,0.5035383466792561,0.20625618942287355,0.6743121373499827,0.4685829815761496,0.11657173085280195,0.20886859272014208
90,0.308919347098553,0.36060530300094645,0.6309536631534499,0.3794053026661676,0.5251284217042904,0.17420006950846367,0.6552274802975819,0.4699647021307693,0.14388515891331463,0.21009053321152868
91,0.31769472690822004,0.35320897439103555,0.6468209157285711,0.3662067366125864,0.5435116507524834,0.1370966327581148,0.6384929570014725,0.4715383703416597,0.12578861422409532,0.17777155968849456
92,0.32287540245395185,0.3470806681605262,0.6554526712229602,0.3528384925546129,0.5546631166112166,0.10707973598023626,0.6240253930894559,0.4732260431347314,0.18422698135922463,0.15650539421688806
93,0.3199979710908563,0.34244101610494126,0.6527760419748085,0.33797822564279445,0.5592604619164903,0.06348154565504367,0.6122191965058928,0.47496887276349337,0.012591061196661582,0.0803682488924565
94,0.31191656054567485,0.33850456000599327,0.6423218608400881,0.34632691459367365,0.5555064270228333,0.07756202754190095,0.6026941273122947,0.47670932516123465,0.14987354083040122,0.05470131743754639
95,0.2947781644229669,0.33716740298345377,0.6191742514761736,0.35845964900869004,0.544106702848197,0.12090866451915416,0.5949475029443172,0.47843223502779614,0.03662417012846854,0.029252616500141146
96,0.2759122173675564,0.3364195085569839,0.5927107620241141,0.37314822640911055,0.5316602575057463,0.14516252840111482,0.5889684357781361,0.4801343619320608,0.0679980625476147,0.06284823826944569
97,0.26047507241495993,0.33368526513285013,0.5715781012143247,0.38933388418185283,0.522503460474324,0.13041839990889198,0.5832109572150076,0.48185682532654384,0.03296720797060494,0.06249974790554026
98,0.2481655797466142,0.32908329260815367,0.5535631901153766,0.4050465999963159,0.5139129687027053,0.13362695284032103,0.5792504432510885,0.48361692645862303,0.23043043418559797,0.12407670048571436
99,0.243571786089285,0.32159151371997224,0.5463837676697355,0.41893545002176996,0.508332680941032,0.09811448770935399,0.5779255980385373,0.4853862938532651,0.053253408007014294,0.05475482010060741
100,0.24317428533051016,0.31307903427000444,0.5429594766204255,0.43199267594447727,0.5020101020956983,0.10995595040496349,0.5789186390740587,0.4870903269281062,0.08948900811085833,0.050251971270787135
