Frame,Center of Mass distance,Symmetry,Grounding,Arm fold,Leg fold,Kinetic Energy,Potential energy,Bone length coherence,Torque,Center velocity
1,0.1371447333296788,0.43645577575219335,0.6294373975848244,0.4115599359627158,0.6929572610377224,0.017504641192178733,0.3704090513662388,0.9178417617614207,0.0024335032474011144,0.011705240739440122
2,0.12952080453829,0.4368172955361776,0.6192012989183896,0.41181207668335235,0.6913576143393361,0.017504641192178733,0.3704090513662388,0.9202325240821214,0.0024335032474011144,0.011705240739440122
3,0.12210400353046069,0.4382362759476188,0.609130541052741,0.413821734315221,0.6895982359519406,0.02313191422884268,0.36945211622583013,0.9202425138534445,0.014328588550633526,0.013217122203540748
4,0.11886830949539126,0.4408597976921013,0.6072666992984956,0.4163818606402757,0.6895856077132216,0.02390852480870427,0.3663217193015783,0.9200274149726965,0.004142602851146362,0.008516895715569345
5,0.11645340131080004,0.4439690201605649,0.6086796115961048,0.41941270408601833,0.691496736126539,0.0282331548409626,0.3619577039095981,0.9189420994470207,0.036707971931254774,0.0
6,0.11340252908977615,0.44644738623725905,0.6085443327590633,0.4221192091153371,0.6937355529563439,0.018588343334900937,0.3576390816706349,0.9187932315301905,0.025073286952413548,0.0034018171066152025
7,0.11096310732282463,0.4481523919047317,0.6064249643127129,0.4241975773283748,0.7004364363838178,0.013441206477260343,0.35328023068903147,0.9193808711410836,0.013557883409915025,0.009838501670554802
8,0.10755767386970976,0.44946404164163856,0.6000518279917679,0.42361003936723685,0.6970571691884966,0.015396362172238987,0.3494109593686743,0.9208624650828329,0.007800350353549754,0.027828497096311043
9,0.09593874906483861,0.4505566836875027,0.5792639800392614,0.42303027514798874,0.6826842105073988,0.03517174826784428,0.34789250919200254,0.9232244654625169,0.016476611585633634,0.03453978634927788
10,0.08554998996860268,0.4504799192001216,0.5579951406662893,0.4214011180638998,0.676844902031456,0.03736246524171595,0.349262754001612,0.9264985682979223,0.007795395831487573,0.035740355742043456
11,0.07475165013318932,0.44999108622905654,0.5322170067266178,0.4193660855511536,0.6679884144937038,0.04179580983225572,0.3521210792020348,0.93057859493032,0.01803301600377746,0.04275632382422695
12,0.0626704783923431,0.4504117090547452,0.50944506916476,0.41853482106911144,0.6585840386377347,0.035425830103330294,0.35543438061848287,0.9352427825804229,0.009211532719146459,0.03327387798920959
13,0.054808987897211364,0.4524250485457349,0.4955714728811531,0.4181799628071814,0.6529701904139357,0.03297067295207667,0.3575946330080522,0.940119336001931,0.016194707920145823,0.026434540075712935
14,0.05317869823902242,0.45607990209522353,0.49050603198456294,0.4194176362269622,0.6580300074863001,0.027803105586187413,0.35625570197539264,0.9453630153690695,0.02359049912247289,0.035872962900382055
15,0.055518907340927875,0.460903220463972,0.49560153484494013,0.42239961455516867,0.6587193817248561,0.02445425052547179,0.3502552895294265,0.9503887998438653,0.020618787260509027,0.03174995882286666
16,0.05881141375910772,0.4633001876065814,0.5007872235966784,0.4240376398453629,0.6675178123153289,0.020792714225145167,0.3434180920173353,0.955352569835324,0.0020146831900334397,0.031142748628198016
17,0.06762561723996166,0.4665679519478099,0.5120153670677465,0.4251654072749858,0.6537025252931244,0.032802819253265246,0.3371916371800906,0.9603828153261899,0.018583986466224115,0.03896724818785013
18,0.07127679463945649,0.46775533086786564,0.5126166063433177,0.4243826458655583,0.6455976864800965,0.027756978676090317,0.3317533909040309,0.965541393585529,0.0021624646083763777,0.02975721102524298
19,0.07412671949209991,0.46921753992609005,0.50944506916476,0.4229492227771338,0.6365705957474355,0.03736120880226813,0.3278999841372818,0.9708120761543824,0.02618734762092995,0.03753969100822015
20,0.0788473780516342,0.4698169957304655,0.5105122688788608,0.4208922608438989,0.6350862155930201,0.030942189532028888,0.3246994239165051,0.9759819728635158,0.030792090930077263,0.024586383006505588
21,0.08422937739106412,0.4704923906714573,0.5172311177832718,0.41950277149236304,0.6303049857585752,0.023191132181050695,0.32153002693346977,0.980837116096468,0.04176824104517371,0.021556237454473524
22,0.09037257263960494,0.47118298521863866,0.5250472283655284,0.4190340513445352,0.6307348479398819,0.01299420094061405,0.3192504245864585,0.985100743679642,0.0075252407758396155,0.011300834538394082
23,0.09550298333300447,0.47077928629086385,0.5348173665934336,0.41889124076186446,0.6347793800505496,0.016554969485862915,0.31855258478456216,0.9887075691411337,0.024640140479275634,0.01808706060707109
24,0.09872456650441862,0.4704648889673777,0.5402285200734477,0.4189556680470597,0.6360071668113596,0.010265165321916885,0.31850868562302687,0.9918037631558224,0.002570164820292397,0.014374764718278178
25,0.1048583114219398,0.46942373289297956,0.5485406530581054,0.41897103300118477,0.6364903346965167,0.016967238363477275,0.3196261891439309,0.9943571978785031,0.013762766932331891,0.023468458754964713
26,0.11022905957022286,0.4674177132864351,0.5587466897607533,0.41902463365431025,0.6483830456258327,0.0190073244651288,0.3211785002908517,0.9964236880224377,0.011109510974735143,0.022577546556281407
27,0.11925269909973069,0.4668458394786517,0.5725751930986374,0.41988345109757125,0.6473080932809707,0.021727347051766606,0.32172799134108815,0.9980288408177411,0.00847776136636621,0.02508063395339459
28,0.12781064925825594,0.46598144650038203,0.5849456911933162,0.4199173964401523,0.6537488005039568,0.021225455041532632,0.3221189892210896,0.9991710604619565,0.008784057938751158,0.027676318209283665
29,0.14435057131187862,0.46497551000525583,0.6113851883360907,0.4195999848148121,0.6582727190897026,0.04363024264059608,0.3217272902709252,0.9998063743453809,0.016641965903180834,0.04197456306585156
30,0.16119908555989285,0.4642383010598306,0.637118229330124,0.4192991118927391,0.6567395947396614,0.041487774945942045,0.32111365064038455,0.9999631154102419,0.030763499235028916,0.04438760097525326
31,0.17315998102628524,0.46292082023695075,0.6568990014960615,0.41865879220022434,0.6667701464147053,0.031506093842243524,0.3216901282473333,0.9997494453475955,0.002555070425116736,0.03667433447390147
32,0.18763257168149086,0.4613366737948235,0.680723107790169,0.41872809083731527,0.673968474235538,0.04686957560160596,0.3229084946999668,0.9989434137739801,0.027833954464501237,0.05825567441601896
33,0.2030740223505519,0.459274741575239,0.7041113156094915,0.4179784508601514,0.6807194562364547,0.03902637393033994,0.32482475541059075,0.9977002859239833,0.01172450399652865,0.04428438769427197
34,0.21680459420706477,0.4564571473082197,0.7224791754779043,0.4169423781263695,0.6843961120866955,0.03780206014218222,0.32714089260700113,0.9960850681348516,0.010300151230414702,0.04376332568271173
35,0.23899429318715923,0.45302370244476836,0.7463183127539051,0.4153972634352468,0.676533989811274,0.05493151086369938,0.3289515550304053,0.9941007540031268,0.018050412987599462,0.05181845714222588
36,0.2571475391356308,0.44859502645288013,0.7608081792948922,0.41325802736326656,0.6635502184666396,0.051188826516093605,0.3321696581365115,0.9917570623168026,0.0021013889190134344,0.060041012844171265
37,0.2714832493911324,0.4412143337955861,0.7774023833003785,0.40975400488675195,0.6677200068431132,0.05909476124943155,0.3382855602982988,0.9891878253438151,0.013972285221170019,0.06682114202590461
38,0.28995068785166456,0.43589444284927237,0.8065324262013298,0.4071584000388548,0.6783024206792239,0.06743125312700017,0.34419195048807805,0.9862163566096069,0.009292346667294303,0.07203385858248014
39,0.3056780039267997,0.4320348439847026,0.8309577717709662,0.4068065677721913,0.6893457222261842,0.07084733998930551,0.3498124860797635,0.9826673068983708,0.010044061615787673,0.08688063099024856
40,0.32160460682088676,0.43043941014913734,0.8602080625270234,0.40815687940884476,0.7000726026758434,0.09294639293334543,0.3558062747363081,0.9783013485908758,0.04158666970066139,0.09701947490093978
41,0.33188047894315764,0.42813999729363256,0.8820631101936731,0.40996143845622185,0.7157905223460621,0.07731742146281138,0.3620198507819014,0.9733455216476661,0.0166695852952885,0.083594282819749
42,0.33802542726727275,0.4261028921475793,0.8961471402237046,0.41218312668558743,0.7311456677518452,0.07422381170617148,0.3691252871992677,0.967876236945631,0.04729262830735622,0.09178985313178996
43,0.34529341826017906,0.42391140390853005,0.9096148999962712,0.41409091684411103,0.7397287686003358,0.05991816850460906,0.3754029147831682,0.9621181637457696,0.059831367237418415,0.07789480712201134
44,0.3519252218815201,0.42136172701173064,0.9217599333625898,0.41470492711352486,0.7492520898751714,0.041553854084387845,0.37877722773992223,0.9562661268942094,0.01667589078117814,0.05111567059361273
45,0.3594546828111861,0.41874873363825466,0.9324920544313413,0.4138666967202783,0.7569731137303252,0.038869856695595686,0.37971943873207104,0.9503899138599606,0.027971368766889618,0.039867995360061734
46,0.36626255669736546,0.41719314536876456,0.9426680291702022,0.41395880423588416,0.759323333643898,0.031142072132825584,0.3811294620453282,0.9444753957770198,0.034242360765246414,0.03876266612102497
47,0.37521308316683255,0.4173967397675119,0.9520774238327478,0.4144033504167494,0.7660867720521637,0.024962612219635468,0.381425992368221,0.9386650293461933,0.019147012373128124,0.020147425252947694
48,0.3808325141695964,0.41787615921440174,0.9577741659686962,0.4154424829839265,0.77338470555711,0.021446821517223165,0.38004246836615324,0.932972380832879,0.008515515836903274,0.023749079720831998
49,0.390012828367153,0.41877406218291596,0.96671760019267,0.4164483616545919,0.7807744491811313,0.023495325288244415,0.37831507567762146,0.9274334091749289,0.014887878737066986,0.025143538126620433
50,0.40097930503739626,0.4198300729602676,0.9761570568189603,0.41694831067347343,0.7808957762689372,0.02312189582988456,0.37645034150832374,0.9220054572746235,0.0037651567392850975,0.02353873910439032
51,0.41232956803612586,0.42178945443645216,0.9844240968579375,0.41797481311719,0.7811022163034238,0.02642813534415406,0.37381633192325825,0.9167436916772944,0.030231261069719795,0.029374532779651335
52,0.41999631991939274,0.4219304217346093,0.9910377288890939,0.41734111201450674,0.7803595569708371,0.01750038179845199,0.37048078283366725,0.9117126074206652,0.019597379529368342,0.018832888122588667
53,0.42757366979105715,0.42269019689830545,0.9964639133510438,0.41733148715860213,0.7804422746788783,0.015776081777671088,0.36819009170785916,0.9068180966088983,0.012595834565114948,0.01757508573324778
54,0.4348758804999145,0.42337186220801365,0.9962234176408322,0.4176811992201741,0.779827066070119,0.01608105293117016,0.36679393612716943,0.9020501736944709,0.02105240767167211,0.021051847454783626
55,0.44160576291067916,0.4243710994013704,0.9916239371827716,0.41821609832439743,0.7774356373746977,0.013007208097015827,0.36618802755986996,0.8973555453971706,0.017169858753191273,0.010156766973436683
56,0.44605304850960553,0.42476352703443565,0.9868891778877118,0.4188611157109343,0.7783698731752647,0.009980145224270223,0.36672042857856757,0.8927427984925458,0.011740478351530345,0.012688555566966374
57,0.4471514396702913,0.4250138242752041,0.9852508008618268,0.419185830050941,0.7796392784217112,0.00873914154569052,0.3686630684032389,0.888174596332851,0.011416455284385353,0.014323798229806835
58,0.44695455786443705,0.4255922365603473,0.9865284343223945,0.4201509326336297,0.7796928675902157,0.008936815814877555,0.37092398594787307,0.8836681593808228,0.010040844098741775,0.009471056417407466
59,0.4486061480555617,0.4271010737296642,0.9867088061050743,0.4215903687569163,0.7815034473764643,0.010926706239566564,0.37256713772524036,0.8792026216201374,0.01072553118173409,0.008694392835470724
60,0.44851550793649786,0.42901947017278297,0.9871447045798591,0.4240998129145107,0.7820359065670667,0.011766400827205328,0.3733711133666668,0.8748181924983685,0.0318059746047596,0.00825031488794201
61,0.4486830031254978,0.4297133380158735,0.9872799834168584,0.4245930460614863,0.785726737623192,0.004057861492049247,0.3737881618839288,0.870538858366139,0.011150601343368068,0.004590605482484595
62,0.4518159618525744,0.4306502356135302,0.9847096855138296,0.4251550243004911,0.7818081886734791,0.005934107530105772,0.3741190244715442,0.8663598929402769,0.011715035372221816,0.004961059783282752
63,0.4555716699024902,0.4317835439788274,0.9832667112524757,0.42491867274808176,0.7785864969861959,0.0067216729382889705,0.3739056207316565,0.8622980394405734,0.008405344545055198,0.006884420779590907
64,0.4579336494215567,0.4332268802653237,0.983371928125688,0.4252457435734537,0.7777983738589327,0.008229895303102119,0.37376612119881697,0.8583399969698793,0.011342535294134905,0.008756519145358937
65,0.4609412195835039,0.4348042170005041,0.982770688850159,0.42759036692668084,0.7755633442860672,0.008867981310401092,0.3753705888264194,0.8544325559172691,0.017525744451895,0.008048878512994233
66,0.46251907843692724,0.4363825428385579,0.9813878385163367,0.4288270100950816,0.7765005581332087,0.0066933321340598585,0.3769639048727792,0.8506186657993366,0.002361187422032465,0.011137193943431212
67,0.47071077713368964,0.4393167957029457,0.9778405267905258,0.43124944866857245,0.7788280191365372,0.019999717605239137,0.37558772114574585,0.8468915424599373,0.03819050685801082,0.01782004916419178
68,0.4750654514915761,0.44029157067260744,0.9743984319379695,0.4323504993743969,0.7820683048465996,0.009846850785137175,0.3735362349753256,0.8432204306312763,0.01069118732073512,0.010066100644700359
69,0.4789476385141201,0.4410931527268687,0.9703851597735866,0.43332768222558377,0.7840781320182789,0.010629639176880706,0.372456567852032,0.8396187700121656,0.007549527367011189,0.012066669606881766
70,0.4830362067978408,0.4422853612360913,0.9649740062935304,0.43438809702033415,0.7824243891757651,0.014206120897720326,0.37174856851948757,0.836017501869455,0.016327353891000443,0.015285966608933743
71,0.48519646088517215,0.4432560144693937,0.961727314205505,0.43636152902119935,0.7844770905822248,0.012872343847171288,0.3708211952237624,0.8324822572496353,0.010321197946041237,0.013452376306296272
72,0.4875418456583776,0.4446145709906555,0.9581349095340136,0.43769875512233575,0.7871206914398204,0.01353254131951246,0.37015318683679127,0.8289339298563516,0.008339740717302096,0.011561425187337047
73,0.49047163433896307,0.44569426704123644,0.954061513442099,0.4386141344325346,0.7883538195442442,0.01564718360984857,0.3708081661033674,0.8253838428152876,0.01242252634011955,0.01802489320239391
74,0.49129595161504486,0.44681243262139736,0.9534302122027407,0.4403789914782603,0.7915407721291795,0.01423835302422614,0.37275606623066065,0.8218200024384363,0.012560918027603264,0.01851979677634755
75,0.49495340281804856,0.4478851598873989,0.9495522188753994,0.44165468613680375,0.7909842488842611,0.015900347827337874,0.3745482590207227,0.818246298827364,0.019474844395724434,0.015603181130353175
76,0.4958712369585417,0.4493554753110798,0.9486653909439362,0.4423877630358471,0.7953975773847483,0.010751778097567461,0.37483976554985443,0.814667231073358,0.005172452847437699,0.007171618424873272
77,0.4973670873805275,0.44946246704475773,0.9452383270732311,0.4433356487567841,0.7972260926198717,0.018579774796402288,0.3751207226323902,0.811100723812109,0.02051674053614298,0.016528230080786677
78,0.49638334268088186,0.44983318073956285,0.9457042875118029,0.44376288596751867,0.7991877006939349,0.012826816365299299,0.3752921930265689,0.8075560640948962,0.00895877013276205,0.012804758168820806
79,0.49468272367138205,0.4492283670242827,0.9471171998093699,0.4450286893383561,0.8000739776159919,0.014846074014057247,0.3773764208513,0.8040196790961124,0.02283640299545523,0.014858003725304464
80,0.4939699775150706,0.4489725444470772,0.9481994305053643,0.44559631223051344,0.7992983203589328,0.00964329733501792,0.3812962865158703,0.8005049299802232,0.016827060227604065,0.014106401613743562
81,0.49366075366736345,0.449513683776372,0.9479589347951527,0.44643899929925845,0.8005749435827505,0.008183017381069666,0.38325113902979124,0.7970056193872731,0.006494034978873737,0.004244169626429476
82,0.49249118539007375,0.4501652685785105,0.9475530982841548,0.4476257789869243,0.8031291996168476,0.011005018508660865,0.3840513628965103,0.7935333230437661,0.015470044026112677,0.0066146498447875336
83,0.491669167324292,0.45082621865336475,0.9477635320305794,0.4491127117342951,0.8052088729450713,0.01076391043160483,0.3848419714093777,0.7900893779203683,0.017116326440503867,0.008246510722011715
84,0.49076246671662893,0.4510590385911405,0.9463205577692676,0.44994613640478154,0.8085551108082359,0.00950900426159981,0.385266863899607,0.7866882596704097,0.035414340244675935,0.00600447455537542
85,0.4906732422017636,0.45101524044080243,0.9467564562440526,0.4498783596827004,0.8080573842034242,0.0,0.38492423814092186,0.7833725337614146,0.0018479443094760874,0.00024582779241605254
86,0.4965848519953722,0.4506484940888086,0.9451631721638057,0.44975652855001663,0.8035526123596383,0.009778967746375435,0.3845393313853215,0.7801246025308936,0.010916922963010056,0.0013733671128915667
87,0.501531068169408,0.44953731595252217,0.9392259343176458,0.44852074897422894,0.7971157129898273,0.009621393757427167,0.383846794080279,0.7769698062047551,0.010102564098280538,0.0018915073540334336
88,0.5086056526402403,0.4491604978677572,0.934521236986373,0.4474206011316084,0.796226870413843,0.012399758523827123,0.38310498793019016,0.773897743834175,0.017972351070893143,0.0027528396583079732
89,0.5142216446514688,0.44934280414478944,0.9348669495697969,0.4470547677278007,0.7995435174703627,0.009993454790365095,0.3824861148336494,0.7708952333502458,0.02225269223144488,0.0036042016250476087
90,0.5161423653132527,0.44991788594840915,0.9360844591028328,0.44754292019328396,0.8081239289372604,0.0062145784926265265,0.381637615415369,0.7679188149165822,0.0018842518482153111,0.007072167693616132
91,0.5219726143982337,0.45152825329683866,0.9289748046693174,0.44932846878580107,0.8050342429170663,0.015294962323401369,0.38158357035788604,0.7649243699944497,0.007286099137455454,0.002993526123459754
92,0.5287454073884021,0.45230826334363,0.9225114824570537,0.4506130448653131,0.8064268546601199,0.024977746195750043,0.38133020878981827,0.7619042175082642,0.05191780474960008,0.02444954394625735
93,0.5314352589414958,0.452502241933882,0.9196706268800263,0.4510452169837978,0.8065634181488103,0.006154501184334355,0.3802738033136149,0.75891716387491,0.0020700674902656346,0.009433552451663151
94,0.5335849911600721,0.4517945762580396,0.9169049262124241,0.4515893729174608,0.8102213031216385,0.019755512896139266,0.37957998359709255,0.7559311870694134,0.030809368579066597,0.020033666195326507
95,0.5372860691156981,0.4519302482269186,0.9169049262124241,0.45170815139927756,0.8096156938078145,0.007560670891605828,0.3800347913270694,0.7529674764596703,0.009411503751195907,0.008142328221782728
96,0.5418861199213945,0.45020576570640525,0.9089385058112325,0.45123406018413814,0.8075511455999697,0.02595030539312458,0.38054732616598685,0.7500295221190303,0.03731271884696315,0.03916384593211088
97,0.5371276492439517,0.4486273613998808,0.9120048261166203,0.4510529879261081,0.8075680768458272,0.015491712207127825,0.3827143307020394,0.7471050339236092,0.025759936153784663,0.019207956676409454
98,0.5354913644629476,0.44915392432708917,0.9145450620558622,0.4514044512137859,0.8036265043541201,0.008602228837664884,0.38710034769009166,0.7441910027330184,0.005876038510632369,0.006285342871433685
99,0.5337800550949153,0.4506663279693013,0.9174761035242084,0.4520631878635103,0.7985400384161734,0.012546236905087039,0.3916308581950729,0.7412966277156879,0.030831038087477274,0.008531201336505994
