Frame,Center of Mass distance,Symmetry,Grounding,Arm fold,Leg fold,Kinetic Energy,Potential energy,Bone length coherence,Torque,Center velocity
1,0.9514216820676622,0.6583759125940205,0.9897087538116098,0.6254299156385623,0.5435568139784561,0.21087162419900107,0.49724625315677917,0.4491904652473666,0.13913487743644481,0.20490998858628037
2,0.9686577683723697,0.6731521981356512,0.9927469424448184,0.6328529976008567,0.559245178626072,0.21087162419900107,0.49724625315677917,0.43396210234767807,0.13913487743644481,0.20490998858628037
3,0.986759405112815,0.6911279259213212,0.9953195420548279,0.6457858678039625,0.5822695992396618,0.26422689270331934,0.4973886768887967,0.41494666657924945,0.09429223734809673,0.23462143054130327
4,0.9945479407854638,0.7099920107477061,0.9977037373730584,0.6692286166337627,0.6195885094698019,0.31269691768195534,0.4939926777461919,0.3952413892067478,0.21348903242044495,0.28531300832872414
5,0.9726454080403356,0.7302642177275379,0.9997795731489938,0.7077668764897771,0.6717593035428188,0.4083649338348924,0.4851576322620668,0.3743475766669075,0.04012198154997054,0.36012003294614775
6,0.9313686130188294,0.7560387383824095,0.99999982996492,0.7569327316797311,0.7369166784187307,0.4392732270968868,0.47125486838045705,0.35109421263394347,0.1574135097148204,0.4388128508547497
7,0.8865777070533598,0.7935846228799678,0.999455626201264,0.8113260314575919,0.8050145653538223,0.4964565348150293,0.4563469698274133,0.32391640513640735,0.08146480393563403,0.45279248460394556
8,0.8427954017587778,0.8358114235649112,0.9957112603305348,0.8653306253914903,0.8754811253787271,0.4601030542153682,0.4463838785732933,0.2931401739821138,0.09130082569233271,0.3963823193125299
9,0.8072709956414688,0.8793552706298765,0.9865533207809989,0.909490505512357,0.941850105060374,0.41507070065229096,0.44806900694131174,0.25954946477402613,0.004699529690458236,0.22156682334229172
10,0.7800694211102269,0.9176284591455749,0.974878354110399,0.9441852246400134,0.9875917758378584,0.4283067632109521,0.46261980556543747,0.22331900229436516,0.02112639934194408,0.13912593045724428
11,0.766588187256317,0.9480046577732982,0.9658810326081683,0.9710393422641098,0.9999998204077523,0.4628626895508228,0.4816037924875981,0.18502040590395574,0.08571278929865943,0.11925744825651168
12,0.7649212631933746,0.9673714060920718,0.9590849238386334,0.9904242754684576,0.9862773967077989,0.49307169455924404,0.49832558802108984,0.14526140233821383,0.0789393619121807,0.04734433293787386
13,0.7724048804331157,0.9761648865022031,0.9559620210454514,0.9999999532426079,0.9571491584009403,0.39772131347486095,0.5109487425290862,0.10686534121088999,0.1367426240420948,0.09727952598259278
14,0.787478727376385,0.9760039140480986,0.9585020904180319,0.9989787374938813,0.9307189504835417,0.2722105081694138,0.5179991871522113,0.07220901831109754,0.09237501143598217,0.12182860783717772
15,0.8088480615302489,0.9711164389961995,0.9665438361957843,0.987246848475493,0.9080672078692453,0.18063342771424565,0.5209396240663214,0.04383320876425748,0.14949001375364804,0.14529777490417922
16,0.8320125960168098,0.9565156262603801,0.9761233134053369,0.9665324348063555,0.8921161239906215,0.2755499522357016,0.5217772631352469,0.022659854634836715,0.1011255507070567,0.1348355445116834
17,0.8516136759045512,0.9353592368121152,0.9838722870462288,0.9418888526556336,0.8826741533193744,0.36871668444057865,0.5237354628345018,0.008773214208493835,0.2519894739215639,0.15316153165037363
18,0.8821776814922139,0.9076356041261787,0.9918259300976122,0.9147806697495463,0.8519285273330728,0.46919325393898986,0.5306037305932726,0.0016264521928037957,0.04782588750420139,0.24990109008821118
19,0.9163571975345033,0.8729520564428539,0.9973221847965472,0.8895738677043884,0.8052260320098986,0.5104930295975709,0.540643932416193,0.0,0.08289677490486712,0.3111806829067457
20,0.9449055873266196,0.8385529979387162,0.999630476227446,0.8673596657788063,0.7453173084769111,0.4694110615992797,0.5552004094432363,0.0017856112379874233,0.12706440870624278,0.31456979116228695
21,0.9578669033428908,0.8079247006815068,0.9985352915673359,0.852090042488262,0.6790421813073868,0.4277344716945244,0.5736729225498197,0.004470737724886372,0.07105401749362827,0.3216064514648187
22,0.9466653997676625,0.7815572904416956,0.9941105015637164,0.8432598480565399,0.6200840347535459,0.4169728437194883,0.5889298123500668,0.007228934261159767,0.18102540487618862,0.3898186859185346
23,0.9272701824874544,0.7547466198711724,0.9888568682189387,0.8368782906944804,0.5790016220167197,0.35414700973178515,0.5967473589118727,0.010188736944195387,0.14285419354773285,0.352171592050499
24,0.9095799450292188,0.7274359251412534,0.9850440533069504,0.8303006627183537,0.5530209127193221,0.3066513329095966,0.5963781140483085,0.013787875818682228,0.05819339732836187,0.3072346421942675
25,0.8920175445159859,0.698437591279993,0.9810306352641517,0.8219872848091062,0.5317468895729317,0.28652452397924105,0.591902221808716,0.018351226066016618,0.13617947253504323,0.26691638780286153
26,0.8770225097931796,0.6749478110482914,0.9773099893582133,0.814586965267726,0.5133900706741644,0.23747680679330993,0.5879849890630001,0.02364837946291855,0.14322770542300897,0.21901603530115699
27,0.8647801727084389,0.6554029919061843,0.9730356517027031,0.8082281625647496,0.49811339532454113,0.19250715187269918,0.5852534596208281,0.02941298547051063,0.025571218231711317,0.1758976863176065
28,0.8537301188469845,0.6405947148175962,0.968839251074366,0.803660556537659,0.4885129146494875,0.18422062550523294,0.5826922561803869,0.035614277981541896,0.007901962733906307,0.16604877200349633
29,0.8457102755039485,0.626629685698033,0.9667437616133169,0.7993797481119184,0.48242723866393655,0.1782849678465596,0.5786879070183333,0.042390963320522376,0.17387278022718508,0.11737200023621423
30,0.8305963148409742,0.6097161630513364,0.9629810974840317,0.7925775908517381,0.47595440696063973,0.2415356959797707,0.5727529380869371,0.050171032180073995,0.11510091084332248,0.16820712283055914
31,0.811817875044015,0.5878374493429279,0.9562059978261703,0.7797067904447731,0.46617705655813874,0.2821908910346919,0.5648845619096241,0.05933390585273637,0.018127118914034686,0.15570221484140506
32,0.784741194804236,0.5677955635349224,0.9420838085023179,0.7629852493371351,0.4521488486085843,0.28709916943669783,0.5591810715368515,0.06979260168167814,0.184528635100969,0.1759280677180077
33,0.7599981552748307,0.5524346847433251,0.9280199025205268,0.7470111972103101,0.43837510588219347,0.24092910298217304,0.5578171854736114,0.08130542936360384,0.14853583775704624,0.1567495361575529
34,0.7391731702726768,0.5455931003824138,0.9163618786819194,0.7341842539196587,0.4263425246677819,0.20624330575434754,0.5573707950629855,0.09356426677256911,0.13014623966293692,0.1664357758309496
35,0.7233654610196424,0.5400939985785915,0.9079833094041202,0.7245202242843368,0.41511346321987436,0.16834838450185774,0.5552849102318104,0.10638447649489677,0.03989322122657342,0.14612847168373858
36,0.7043746277022143,0.5368408168402854,0.8967231032607385,0.7159766729724153,0.404416039410386,0.19800574806376728,0.5545349198379086,0.11956222589196412,0.003892057238380728,0.1885590421842898
37,0.6853653122639951,0.5345292248110138,0.8845317190709528,0.7064170896872897,0.3924450750882733,0.20483597420177332,0.5579332110688188,0.13309289112003417,0.012244254789958556,0.21686360425406953
38,0.6646885746989417,0.533963847268458,0.8708961278819768,0.6953367821605815,0.3796780270062513,0.2243207333776453,0.563763817117462,0.1470115546234575,0.04681032864192521,0.24758402452333353
39,0.6457293935934839,0.5338116772584186,0.8579484156719673,0.6838292743433342,0.36874387178259826,0.2137593372711096,0.5703818505472501,0.16126934079385044,0.02270891730228115,0.2528387974176858
40,0.6255457584356843,0.5347372809142453,0.8436296894969816,0.6707306301603656,0.360207947237658,0.23332695399778608,0.5761485704841283,0.17598038120750403,0.004624781432329941,0.27844466433448345
41,0.6057264673493009,0.5384440806210967,0.8288853593823021,0.6574415935101312,0.35086662141005337,0.24482443171522247,0.5812867509391395,0.19117185235533585,0.035278275359220096,0.3061010888151682
42,0.581706673860847,0.5462544491288069,0.8102719641534126,0.6447208734818376,0.3406485381924138,0.26851553631480507,0.5882962095619857,0.20670400036655687,0.006710221663959178,0.32625553483968955
43,0.5573661611498812,0.5569890820323112,0.7909713676588381,0.633237574395214,0.328765778360408,0.27305668456272575,0.5970578924774977,0.22242499192014137,0.06097940891170548,0.3232629640040992
44,0.5337467533377198,0.5682653670779529,0.7714417040756996,0.6226755101549057,0.3181975069679168,0.2588476973129841,0.6059416846563698,0.23824128961432767,0.005853088481757233,0.3042029958888774
45,0.508260825563028,0.5787042939452102,0.7486664715957414,0.612357347943789,0.3080537928355728,0.2638945309567594,0.6172004360887409,0.2541727591554082,0.11376829136441065,0.3062882339840065
46,0.4860466026172049,0.5873468751360386,0.7274506573725367,0.6009059632236433,0.30038078136028634,0.23689777878213752,0.629702750529617,0.27018206510997345,0.008375914034324227,0.28514659153663463
47,0.4623835118501493,0.5958238274634797,0.7034867157998608,0.5867338362326544,0.29365169309251743,0.24264528168989047,0.6423917141917524,0.2862390052156294,0.10907372375791706,0.28450972163391275
48,0.44267447777482427,0.6040967967961973,0.6820154036701815,0.5708149490200124,0.28639010717912294,0.21603560922902876,0.6532706341020934,0.3023466108921103,0.07627848415610895,0.28282146575557704
49,0.42279871287580684,0.6135496654989036,0.6599226284629532,0.5558454365764297,0.27866512921925446,0.19369095958918012,0.6599384806659737,0.3184487766775454,0.0349976902019244,0.23052109816197142
50,0.40425191817218126,0.6227254544538007,0.6366668972676394,0.5449456535336247,0.2731739335761494,0.182374367887637,0.663787181863306,0.33449465989649774,0.07768627692922297,0.21593694575579284
51,0.3877534589459749,0.6308171614657001,0.6141593615331912,0.5345451317072752,0.2695700916050901,0.16321596083354908,0.6657580535970973,0.3504698031898364,0.028305883630482632,0.1886186373789664
52,0.373015686296531,0.6367747165628748,0.593355596984085,0.523280864768229,0.2642230543574159,0.15303199626020225,0.6660379519830969,0.3664955937680381,0.11730026467953229,0.1619607444432087
53,0.3637103230918238,0.6375234954792447,0.5800832601130661,0.5128644081036983,0.26284577678933385,0.12258724714022202,0.6620426192210197,0.38280120311556587,0.007367747647565687,0.12493093060293131
54,0.3519540551380408,0.6385248588623579,0.5648835066743796,0.5057091426484653,0.26292794288084104,0.13353257534768437,0.656647601768028,0.3992691433149135,0.12030259857642264,0.13416099725904315
55,0.3435994935637103,0.6390610078320959,0.553309519282464,0.5017166057846415,0.2597194848234684,0.10136686240483286,0.6536075724829855,0.4156458627774869,0.05203654144617552,0.10317675099305976
56,0.3338429389075615,0.6424916258338503,0.5400839446277488,0.5019485846422993,0.25586967241659697,0.09260218294990061,0.6526935379535581,0.43166404474846226,0.1001802385037344,0.1048450363060536
57,0.32694450700231503,0.6451060304625126,0.53028488831555,0.5050590720867537,0.2523147018202538,0.07251353057540995,0.654476170770974,0.44711861389868457,0.12669060601441118,0.09503765812958785
58,0.3216695523822408,0.6502074561022991,0.5229926934252229,0.5085563313019023,0.24701464289186795,0.043591738554120074,0.6594983250609558,0.4618035269230422,0.05425264723283854,0.07608371051134677
59,0.3135267546321686,0.6550134517826104,0.5121628352144958,0.5099473619897898,0.24111768143840756,0.07200088950232163,0.6703645826467372,0.4755958803059436,0.0503686992660891,0.10183958678997312
60,0.306406010439004,0.6606230481258878,0.5029364466237045,0.5076772130563325,0.2337806054307242,0.0598832381916324,0.6863652939037492,0.48850799859330424,0.05504987146760548,0.072900740054569
61,0.29815066290674247,0.6636351056967175,0.4918165271292344,0.5026464639935433,0.2280697270054276,0.08369268959682179,0.7055561701818459,0.5005077937450103,0.22988475979551032,0.09829410394894297
62,0.29497186735418957,0.6662668027343992,0.4875828522705094,0.497819291330155,0.22431955028338693,0.03586561692726525,0.7230563335315999,0.5116550162659029,0.013032556600830055,0.03271596480936538
63,0.29256384243245126,0.6667334461992446,0.48506650286272357,0.49253173585550974,0.22313872880445804,0.03741134579902263,0.7369191633850615,0.5220630602549563,0.08869391866014982,0.04652026844622957
64,0.2917627071223041,0.6667831715805236,0.48546906455090627,0.48961275332671444,0.22319973944157998,0.028550225729234602,0.7483724716455737,0.5319123756400101,0.017686426524678896,0.04038273826417724
65,0.2913629820896517,0.6668516716181503,0.48647411334480606,0.4877391621823651,0.22249768106902365,0.032877957512265917,0.7575383829846363,0.5411972257829852,0.044420712174589636,0.05591671711212641
66,0.29670275396808726,0.6628232807161589,0.49515629817194146,0.48609439147937,0.22492298465832253,0.04610434261660486,0.7632503147179662,0.5499369134410785,0.035877338837022814,0.04883922069019531
67,0.30175161122861943,0.6585473529642571,0.5028327564918991,0.4831412487403162,0.22235879651340268,0.04220799176613112,0.7644844781641327,0.5582412071526394,0.07113721250614279,0.03602938517677818
68,0.3015286982462141,0.6549287123435612,0.503280047256548,0.47675349512808884,0.22282372166345663,0.03415716484014615,0.7666362230306824,0.5662020389929738,0.012639406418750741,0.05460563944125333
69,0.299005555535242,0.6526864264766106,0.49982574266955976,0.46717251740762045,0.22347699686814865,0.04601569424628529,0.7712595014812433,0.5738854874533856,0.025186413791378974,0.06714696388857777
70,0.2953503170382898,0.6536782787514293,0.4938564441013435,0.4541197419520755,0.2225327150640397,0.056762588189014536,0.7782886056595126,0.581249058391141,0.01973163763310328,0.05768232947099776
71,0.2913419219783657,0.6557379754185342,0.48675807520903036,0.44249315472393547,0.21761086232497878,0.06860563137963493,0.787666666739791,0.5882529552888701,0.021687485955159635,0.061062887874572425
72,0.28677975954067936,0.6591586023194442,0.47866075694233606,0.4329268450601584,0.2123942149668874,0.08215526368734509,0.7981596239126777,0.5948692738137424,0.13124259793739906,0.06288301465295934
73,0.2857438406165188,0.661183775655835,0.4761647389329419,0.4272003007150089,0.20898020792580932,0.05345636549107899,0.8055813378965336,0.601244332182098,0.04531099379639037,0.05145746069112773
74,0.28107783917468404,0.6640176324842414,0.46886034520357944,0.4276274500708835,0.2075021894858117,0.08160661525815491,0.8085712830953841,0.6074208842818367,0.06545205297653606,0.10855646294392109
75,0.27496180503419354,0.6686248371336855,0.4592869674135456,0.4288085093473924,0.20210368991366945,0.06683397859194472,0.8103861806282286,0.6133568012754401,0.048288682027262074,0.09619577924992845
76,0.26999909601288985,0.6710065135956649,0.45192835662179903,0.42694146996552396,0.19662437803137375,0.05621290665548173,0.8103624879891992,0.6190956293365069,0.012569046022049443,0.0917538503338606
77,0.2631657455472646,0.6750960209093344,0.44207711638705943,0.4276149978524253,0.19275688765777457,0.07188065227219974,0.809314672562237,0.6246898464997408,0.009058676337585761,0.10229097528681785
78,0.25576486772017,0.6815372953746228,0.43075591604849894,0.4322148759517799,0.1853935050721792,0.08053349141372203,0.8090025433709924,0.6300295342111379,0.023214720659269193,0.10577012347368141
79,0.24973306642487966,0.6866865451217015,0.42073389206725836,0.43784946533624797,0.1777759405263213,0.09996215521444715,0.8084253440762627,0.6351438199073637,0.1370096303743328,0.1308718038333502
80,0.2532865114962321,0.6826234767426079,0.42599633568467216,0.43946339722195915,0.1741107824311132,0.06810335011348911,0.8037232497731288,0.64014160806556,0.01898288091618277,0.08546342632672299
81,0.2483838146672672,0.68188925178179,0.41869533052170893,0.438124940647563,0.16809469297580323,0.08777811470636719,0.7996850884486382,0.6450331091361864,0.1349577805605979,0.1388089478816847
82,0.24525456720264555,0.6791902687794427,0.41335223902400076,0.4366934128368581,0.16781677420333355,0.05583021702109116,0.8006686142423317,0.6497935065804483,0.04259154210348892,0.08266884328391898
83,0.24102908348490812,0.6763365925651895,0.4064205875985114,0.43445908549282763,0.16746630246442004,0.04766915151615593,0.8041619867550674,0.6543667945366315,0.008627534093070963,0.07211221536158023
84,0.24586280936704874,0.6671149610097357,0.4131557021728674,0.42743383777558974,0.1688353458255581,0.047442423783364614,0.8049588407218754,0.6588257411865714,0.05046365514762461,0.04064476902056538
85,0.2493297230297526,0.659124286815003,0.41767943831533344,0.4189353286482078,0.16911981082437985,0.0373401042633162,0.8042452610563658,0.6632035449123118,0.019461498511068164,0.017242583117492053
86,0.2551424831507988,0.6518366135891374,0.42653918402176827,0.41279156973867603,0.17324607778679577,0.049174773112754665,0.805080736913458,0.6675472502273936,0.05758072088626541,0.03230820089954254
87,0.2595996452296612,0.6453910633863068,0.4330655629059556,0.4092869159368892,0.17669339373404677,0.03857282313735772,0.806587485198639,0.6717496478124175,0.0156570254310082,0.03972597841359138
88,0.26555769278722263,0.6375101720856644,0.44164337988800756,0.40436350824297446,0.1783518803156468,0.05396328160089633,0.8082232649710612,0.6757868245755997,0.03109426902431976,0.06572631143914949
89,0.2711229885874111,0.6332277369873914,0.44970003535791475,0.3975120691191489,0.18022690466017052,0.049163755369066336,0.8080377777182871,0.6796419714763493,0.02156704784246977,0.045734690331737174
90,0.2751879522979625,0.6266632998991393,0.45573778296738804,0.38769984431762244,0.17982444616770263,0.050163145646812214,0.8099828927573832,0.6832843056609854,0.10599794419573318,0.05478713598061895
91,0.28420871407794635,0.6178768277136539,0.4685940038846293,0.37807268701738883,0.17991355051981323,0.08785447558299392,0.8113066717306068,0.6867267181136814,0.06788461716489946,0.09342793863345498
92,0.2916979912985774,0.6087420829864187,0.4792320692371821,0.36827330573600897,0.18098948361386258,0.0728388922488625,0.8096095216553583,0.6899598710150531,0.08018712090130578,0.09061716159603428
93,0.29703436323563787,0.5990246714898831,0.4864592036526513,0.35601449551902725,0.1821469737242138,0.055536982146547745,0.8090998098346185,0.6930349444078128,0.007285271020251662,0.07773816192896658
94,0.3024020208040736,0.5899906234621826,0.4937256454383479,0.3421977649758703,0.18193412673762524,0.06736888423363646,0.8107213100916436,0.695990030970172,0.03699059941523313,0.07638419457250456
95,0.30819396038593627,0.5813364178716985,0.5023326040914295,0.32965554283766585,0.18317537659894778,0.05696537151984769,0.8126340000638652,0.6987503473723926,0.06521848145659391,0.055069395700110095
96,0.31324314523775804,0.5757638926761677,0.5098701311890335,0.32407341119747995,0.18939104928638376,0.03965041268730235,0.8132615736109481,0.701356774774638,0.1066956363807206,0.04088586003776098
97,0.3231463808272092,0.5720665117432217,0.524567699087409,0.33251922329816,0.19882103585240424,0.08366456339696049,0.8096797598364611,0.7037988703050023,0.06045748239328476,0.07292993451027042
98,0.33108769154129974,0.573307487402273,0.5365334047550316,0.35539232946970123,0.20868828795675437,0.08075965681208415,0.8038739215724621,0.7060846477780337,0.052245545832868806,0.07142419116735678
99,0.33694194852760573,0.5783978919013463,0.5436317736473447,0.37293637922018447,0.21047492650428423,0.07843495493426919,0.8025684709191914,0.7081161960623567,0.007449899312771538,0.08866373267863963
100,0.3362431856151258,0.5815580362695929,0.5411723521550587,0.37109597992260135,0.20227172540778998,0.07741701068772301,0.8078334219438807,0.7097727749920608,0.02795743011774781,0.10221215272582412
