Frame,Center of Mass distance,Symmetry,Grounding,Arm fold,Leg fold,Kinetic Energy,Potential energy,Bone length coherence,Torque,Center velocity
1,0.5384704557497043,0.4480953566514786,0.8319709149745687,0.3332659639750378,0.9074703187058147,0.011760993946909104,0.8368858136864367,0.9614840486605277,0.014406479074267717,0.04074972039001062
2,0.5366442412683854,0.45105523092896366,0.8298905581941162,0.3323187597588879,0.9085952829625403,0.011760993946909104,0.8368858136864367,0.9639128682131782,0.014406479074267717,0.04074972039001062
3,0.5411080479302712,0.45263478063343754,0.8338902118752417,0.3312763756720776,0.911602821110787,0.03517625237636075,0.8365338699097761,0.9664298395724314,0.10566757110287386,0.0711264602367541
4,0.5414636861315385,0.4541652500758521,0.833659359380895,0.33073352798830896,0.9157423233387012,0.0012799426102132225,0.8367601040476558,0.9688392521104613,0.011401126832734986,0.01265998704957444
5,0.5393653376517527,0.45326488055920383,0.8326768941142592,0.33128769132478936,0.9207425596269005,0.010163446441062625,0.8397225082416034,0.9712276900622318,0.043041500646089706,0.014864759146101842
6,0.5481401882018107,0.4488443453675278,0.8408855793202121,0.3319084100179099,0.9267373799270985,0.048121247606349955,0.8391187230781767,0.9737050687335498,0.009570570116522303,0.041420890853561196
7,0.5574975781544887,0.4476700347745236,0.8480097946689986,0.3317063725446865,0.9338487785607816,0.057483743573308106,0.837891257389247,0.9752693862698177,0.024157895550014793,0.08202351323454302
8,0.5688099131299381,0.44554739873438404,0.858049193841744,0.3298171875633171,0.9432456366847107,0.08610791104150653,0.839126782389431,0.9763571467860226,0.28386068718285734,0.12033649921139539
9,0.5923577622038203,0.44469818534697503,0.8760503197381216,0.32565514089896935,0.9565598375971955,0.19881701513521757,0.8374674008447492,0.9771563600408876,0.2750923071936849,0.2295834292544808
10,0.6086404454196271,0.4449189866338449,0.8913000060216512,0.32519807906428017,0.9802974242458842,0.11871039910372963,0.8336329206792668,0.9775415708763774,0.022964630158662108,0.14140761953288916
11,0.6258140256552365,0.44126901348990205,0.9050706257425565,0.3258837153173284,0.9966053957125156,0.11490682938640512,0.8302659450456714,0.9777450089444929,0.07868994205825473,0.12569777408748276
12,0.6464532141881909,0.43170682721201975,0.919697547157613,0.3255082955188996,0.9999995844661718,0.1571607328352829,0.8256105702555153,0.9782625297987976,0.16557755066666108,0.1810721478415818
13,0.673011808462442,0.41603028132827846,0.9374785578849624,0.3229938067569077,0.9877350463899411,0.22244574077441084,0.8197243455664069,0.9795226142690983,0.29730390901419324,0.2479732668237292
14,0.7095257606175766,0.3928421172766672,0.9593692798779476,0.3179786284165741,0.9644284550185515,0.3292639154537416,0.8135903100505594,0.9818123796640406,0.21478725630285156,0.3603661062976522
15,0.7551350140865285,0.363422752033997,0.9843255082493451,0.3116589966255653,0.9404977040328328,0.4159074036881228,0.8061137519557883,0.9852094016509598,0.09556255198876777,0.4507308137655949
16,0.8062499135934422,0.3343476778984212,0.9927945735942693,0.30585925087057364,0.912354536846769,0.46653570067318895,0.7999070590759554,0.9891901026523374,0.057628767122290724,0.5019593867748591
17,0.861845844724023,0.30934571371310027,0.9719748998018003,0.3052014453876126,0.8769028676200231,0.516374144183672,0.7965413082729854,0.9931459229928186,0.018962118776974908,0.5715728919771309
18,0.9173502456982174,0.2899015265093131,0.9560353403665696,0.3060463410321537,0.8291437638678006,0.5250806361930531,0.7942976619540537,0.9964803059967975,0.3357595298097358,0.5800501667946086
19,0.9591186565282281,0.28320415863193643,0.9471958372981565,0.31064579636092604,0.7881388846663985,0.43354879892166853,0.7945986376679655,0.9987389329177861,0.23619464822484276,0.49862391328274874
20,0.9901294494693914,0.2809506792299717,0.942863326532161,0.3158275078874518,0.760528379923375,0.3707591633965662,0.7961771032354045,0.9997698292546591,0.602608630017535,0.4111504218697542
21,0.9999999930886189,0.2747681281688843,0.9422325086697009,0.3144662885412014,0.7529371215068184,0.18550284741957548,0.7999241015801875,0.9999778476315307,0.3034975248316067,0.22609680900484952
22,0.9975633856911333,0.2653273831263646,0.9441088562690995,0.30739854447340814,0.7452669687595231,0.08579168490254288,0.8072198756431899,0.9998018985179815,0.11417476741573995,0.10808208005466129
23,0.9879319715576594,0.2588973611180225,0.9475206413890394,0.29658972052955856,0.720640708797059,0.06513161014380807,0.8168456414594605,0.999214313760291,0.21355846974497003,0.07807985116447026
24,0.9818579085012024,0.2503615639376742,0.9506290970687261,0.28892601752477703,0.6740338998657787,0.1584217160504869,0.8277693957830803,0.9985392009407057,0.165280256427433,0.20890768269392826
25,0.9823817119050896,0.2352572489654174,0.9524973916741376,0.2849912220270988,0.6350650698596847,0.10545201082944264,0.8374383625045985,0.997362653781757,0.03635990594564019,0.1848543817680633
26,0.9776902620137183,0.237007443660919,0.9552005133230556,0.2901360875167407,0.6087457213751742,0.09534270764712803,0.845241566462322,0.9954174272591666,0.009617661290559557,0.11349180609812458
27,0.9698671315918876,0.23503660017492833,0.9573238194047825,0.29158990568288834,0.5909075760453298,0.11433887141731648,0.8490999944749335,0.9930563538783166,0.0235515181779123,0.15513285972184118
28,0.9633983727407663,0.23206084897305443,0.9596001323722944,0.2913479872307488,0.5687436530086648,0.1125083219855345,0.8484119739211033,0.9904785063078173,0.6010350716067102,0.15937418512837306
29,0.9362226374972199,0.21430089778249467,0.9633447745770968,0.2650333300312139,0.538015045000683,0.3295891763772495,0.8403588678273024,0.9877721079114544,0.17343008495990828,0.3728465742953755
30,0.9043600777317468,0.2065412563729684,0.9699187020033166,0.2599134361264175,0.5047592818701446,0.40557339856811103,0.8231902702741927,0.9844310685284612,0.1805311422594041,0.42620564615396794
31,0.8666565010802848,0.2120462645549749,0.9814854857026165,0.26702374349779123,0.4736655693617221,0.3737681921147861,0.8010443334467969,0.9805201145018207,0.08562811734557253,0.3836281539741783
32,0.8350145944252428,0.22022915572208066,0.9849482731178181,0.28579690061879365,0.4436080353564343,0.3499753408747122,0.7760646783328247,0.975608948537981,0.4598420618118582,0.32352166687794787
33,0.8101804553240943,0.22508979568810603,0.9947353451455795,0.29784749534884575,0.449681678567525,0.20380477271310257,0.7569737011865739,0.9705568724902736,0.25839044664534205,0.20090773412253482
34,0.7936560321095018,0.23328137438889057,0.9963942619072814,0.3013186917701594,0.45553983479138,0.11030224592079244,0.7485794913221888,0.965524542703109,0.09724954188941522,0.08996225855031469
35,0.7816261979175337,0.23796062352111036,0.9896136409686835,0.2994759181186646,0.46110100396814113,0.07557769102281707,0.7460121484985276,0.9605614473082168,0.02011493914560299,0.06582684193940269
36,0.7732896489907292,0.23824922511942165,0.9864219710177717,0.29770469046645337,0.46015484216226904,0.07495390722501226,0.7437354438383569,0.9557147005690398,0.039014465415528866,0.08030932293789178
37,0.7591538973821019,0.25021726720110926,0.9777891614617442,0.29736742441036246,0.4598147126055216,0.10964550762462667,0.7394132408020503,0.9509552359815592,0.17450836152020627,0.09029997993183017
38,0.7510469925381441,0.252024357897256,0.9733653834305441,0.2982548823777274,0.4608993496953834,0.05267422137848298,0.7326108629720667,0.9464590013990011,0.00860845507421474,0.06105767791276943
39,0.7466608493042077,0.25054480452043515,0.9725332407183616,0.3016406068305204,0.46178483339299586,0.06823644644493894,0.7230734485729252,0.9420889211100928,0.012135885484179747,0.1088259935891213
40,0.741012253259944,0.2564600044286165,0.9694355223639859,0.3069140706590159,0.4594749446890822,0.06377695409800783,0.7156931179365805,0.9377643229427347,0.0574647049462497,0.05952219687010007
41,0.7378440028789787,0.2620818395967553,0.9677712369396284,0.3128428622141665,0.4527943551678992,0.04987761576271116,0.711152984727887,0.9334867459067347,0.008991161764093872,0.0635511288629495
42,0.7325863638363289,0.26726268287558835,0.964359451819696,0.31856954305891166,0.44380992114364,0.06510212558639353,0.7085369028358498,0.9291477425816433,0.07616259109033521,0.08892488671752993
43,0.721606710892367,0.2852722863724682,0.9552568842809802,0.3275412145795896,0.42843177479561495,0.1072745698070047,0.7096711408473739,0.9245575586800631,0.013619351064168415,0.05786096204719672
44,0.7130738464647098,0.2946555998916005,0.9506156754120836,0.3374031121446982,0.41989131696386056,0.1239193624983246,0.7078950259704312,0.9198475840334517,0.04479654176809622,0.15430520785891585
45,0.6996342381650691,0.311981537182491,0.9403803200522712,0.34935867889824235,0.4083857264000821,0.1560389782592875,0.6983922714621444,0.9149846104487699,0.011068398329592812,0.11828175694123916
46,0.6823422766642382,0.3315149065966897,0.9284565202861326,0.36394264357643014,0.3971586164673844,0.17719878843666786,0.6842742655404678,0.9099702902975162,0.22248875350150346,0.15538179650943634
47,0.6695726510433585,0.34053021761611757,0.920368629990016,0.37460898679271293,0.39898790314243276,0.11012081131121897,0.6687174285142102,0.9050359295603384,0.14478229083314134,0.09414208226847706
48,0.6606000981968032,0.34580948384587124,0.9144738383901863,0.37987024906434,0.4019769106181586,0.06319062527680029,0.6546749299014724,0.900293789349989,0.05192946822861743,0.04776430806742193
49,0.6558264572563637,0.3463460210091749,0.9106379289201717,0.38220861059364214,0.4041577807129125,0.04231127889881272,0.6422375966572005,0.8957866357223979,0.010637361237523684,0.0357111220983706
50,0.6498243276353959,0.3490502370752107,0.9065980102691032,0.3852077446350925,0.399725327732657,0.05483744746809559,0.6315144154272202,0.891384525058064,0.020454159953893863,0.07945796228703536
51,0.6474811881320967,0.3555713441917251,0.9036264554872271,0.39042137399349947,0.3862774720576018,0.07307195069916925,0.626927823761677,0.8868733066364095,0.02201204944091552,0.04743617813832485
52,0.643584763628528,0.3569278263707195,0.9002012487106446,0.395512535959102,0.37814264746881693,0.09900596395591167,0.6283934094663495,0.8822700354333414,0.06863138467630264,0.09784814769738051
53,0.6359151778863629,0.3625562570389547,0.8940111806645562,0.4005988498256026,0.372283171256123,0.07983076279614552,0.6323487152365144,0.8775271230236847,0.008255774787855264,0.08572778250704205
54,0.6250398491981108,0.37131904873399896,0.8849998803910526,0.40657410561162494,0.37085868906872954,0.09019778383410068,0.6387602308803059,0.8726418789162085,0.01476011343010712,0.08349956512013088
55,0.6127849590986918,0.38099547239164516,0.8749524282243125,0.4118528235064029,0.37129768757388415,0.09920196649839261,0.6444503272225415,0.8677183268429284,0.010931247008428749,0.11021070141241143
56,0.6008361726732303,0.3927344482897394,0.8650284552987404,0.4172727769880879,0.3711124321522062,0.11046570118135181,0.6469128523807857,0.8627134978934466,0.06261047824885155,0.12339071061311294
57,0.5884226675836887,0.4001226805214032,0.8550051621139692,0.42076060589716086,0.37450893540981006,0.1017997729825603,0.6404278802270609,0.8578649779599777,0.0653461122129105,0.13790328473984817
58,0.5768610422656051,0.40828022973582856,0.844917444977286,0.4254165673195769,0.37869794993254136,0.09631113107648734,0.6231942124743165,0.8531944247530413,0.01018628793639725,0.11467281672536837
59,0.5662016219463623,0.4192878395219121,0.8350283683589939,0.43254379147995276,0.38127567029453224,0.09357047152035938,0.603737268559329,0.8487326189278425,0.010819177805520618,0.1062588860703257
60,0.5518178893679134,0.4325195484765098,0.8215181287770597,0.4392844896548558,0.37905432513972936,0.12221298180287021,0.5851152465802038,0.8443308185484383,0.1287033856688314,0.13253974828574383
61,0.5329756839764305,0.444756375939818,0.8038552286282152,0.4449558117242116,0.3753913114918377,0.1742026417553036,0.5613238206886164,0.839937514021144,0.06131737199426723,0.17058734079436433
62,0.5123413228009095,0.46328147751320903,0.7834918911617769,0.45725500356485804,0.3702933339319658,0.2190638905688634,0.5331144670408458,0.8353574900376524,0.04749877703658922,0.15311621838559653
63,0.487856511733028,0.47530702433379923,0.7594134391351604,0.47299449880348937,0.37266863806527784,0.25114761876838493,0.5182666158553343,0.8303173326080564,0.007618128992530808,0.22125329583578415
64,0.4680682011149359,0.48521507873559067,0.7382448022698398,0.48706494876885686,0.37422572369659113,0.2528556150628271,0.5229548778760735,0.8248335760215608,0.07617657106503045,0.21460608471756448
65,0.45213585802696715,0.49219151698930574,0.7215402084056699,0.49828150038777413,0.3786315461023268,0.22678243478979174,0.5315560655565766,0.8190312205313793,0.0658069778360685,0.21952746242735188
66,0.43662874399646806,0.4913621199375412,0.704094739094522,0.5011238172724003,0.385430605378304,0.20356308063620357,0.5443326512290707,0.8129314437419125,0.20684758614944268,0.2039367273600949
67,0.42785807414755483,0.4893633339797179,0.6927963885281879,0.5049678108518683,0.3893494048925387,0.13857208311041544,0.5693538807604162,0.806555936606869,0.01700799178134775,0.17110184637401546
68,0.4187017403317188,0.48613697637223957,0.6811276002383648,0.5068096813985187,0.39341663051624604,0.1647054965252245,0.6027057639831757,0.799805160817839,0.024766212484827313,0.20375837016397166
69,0.40886760589240645,0.48701376422953546,0.6688387314114004,0.5097429224168476,0.3961856477538194,0.15461154597694618,0.6390600593590615,0.792746444257329,0.02058247512430321,0.17065884355507618
70,0.4012051293114643,0.4845564761242174,0.6591992976067607,0.5163289450657681,0.3907637134974447,0.1919174007613439,0.6755441337740837,0.7853507325536977,0.015374859295014452,0.248176674657981
71,0.38776089104877765,0.484904781397553,0.6430181483518645,0.5224178343323137,0.39049464388291594,0.19886308799520858,0.7101335382997328,0.7776637219072046,0.04010140856295816,0.2721452775387521
72,0.3688654686444879,0.49348394835564696,0.6202120693754792,0.5305804617424141,0.3935051890081293,0.18277378571971473,0.7371367431846331,0.7697335225196134,0.005340185784141055,0.23097169782424387
73,0.3490891079782454,0.5027751609932565,0.5950061981904293,0.5409765895817406,0.3993206369347292,0.1868493723007231,0.7618958317369503,0.7614971572060799,0.18616945512084798,0.1686539137462929
74,0.33291844414058336,0.5115348899376702,0.5749273998449308,0.5443602497316647,0.40912323725909355,0.13827183504709967,0.782086707481534,0.753236988460749,0.03307603772960644,0.19659204975638173
75,0.31645187287429904,0.5182750300738588,0.5523951226641669,0.5508704128206913,0.4167267918612797,0.15935687297185358,0.7951527147327635,0.7447741239630937,0.03961905990099762,0.16550800757306366
76,0.2974591598243654,0.5296253403852115,0.5273825233348447,0.5592911604918196,0.4233350919467887,0.2043193690920602,0.8073443097340299,0.7361124893252801,0.0536649333926365,0.234434099685857
77,0.27864673929860206,0.5423849158537798,0.5014653043474412,0.5715056228759976,0.4358708467060537,0.19049054463307005,0.8085981621791453,0.727451332319053,0.046384140289747834,0.22447403074354114
78,0.2617491720423753,0.55476228549063,0.47638022807222014,0.5847124919835075,0.4450654114354057,0.1782995919406661,0.8061044505402881,0.7186851859320531,0.25396223719616495,0.17534450707652055
79,0.24975549747743483,0.5606789089232433,0.45695640657115055,0.5917480711896681,0.4498896619542438,0.0854128606417959,0.8109403319448882,0.7100339807536152,0.046428358320548126,0.08692094239009612
80,0.23785450761528149,0.5689330661643155,0.4373097855697212,0.5999422370274686,0.4554708304711023,0.1101288065023546,0.8161342318065037,0.7012935852087313,0.12783186714790465,0.08987540162623202
81,0.23049630349431255,0.5822322936824655,0.4240196611568153,0.6005190709193691,0.4577788574026944,0.09070418785420997,0.8193273744984442,0.692737665519658,0.004772821976646051,0.12393523036844227
82,0.22298636442771416,0.5943639824680284,0.41035373035775724,0.6011964652586679,0.45607071973599855,0.10171605205418598,0.8070990404898997,0.6844247799420042,0.03182068214621731,0.09990698212601401
83,0.2222697096569491,0.6070610048400635,0.4068614152979313,0.6041402880700577,0.44821905492669933,0.12732680945252517,0.7782392296373372,0.6763631291419876,0.003260614944205957,0.13354197294258732
84,0.21999967330084133,0.6168046459770319,0.40047539106479124,0.610901768545438,0.4367782874415736,0.14429768584883632,0.7513392734941289,0.6685931989833568,0.02021982932146235,0.1536204531357647
85,0.22513533648462192,0.6331204305527166,0.4063003900500461,0.6217351324923753,0.4218684208054517,0.17406608129169698,0.713189367564026,0.6611882166233044,0.02279688725413519,0.16347425102537133
86,0.23395660416962522,0.6492149440277653,0.41723635588688585,0.6289452240991804,0.4039722234269618,0.21415800117314102,0.6514050946484687,0.6542659341906659,0.07139972943294641,0.23251087763711262
87,0.23877512847270516,0.6642207190112239,0.4231472534746898,0.6376992019160701,0.39089381548490676,0.25124698362663284,0.5871385997719182,0.6477504471104873,0.007397837281041605,0.29690049446391
88,0.24538248442457974,0.6778773561091932,0.43345240144906944,0.6438950676430112,0.374379819053612,0.24874404056680635,0.5385475715468673,0.6415133298044176,0.38189870093614264,0.29917399054334887
89,0.24067111691660448,0.6886293013450111,0.42866892301969906,0.6502738859931094,0.36842045625186226,0.1226393459950413,0.511707930041371,0.6353284440475,0.20379835657998296,0.12122333279708829
90,0.2364750221371204,0.6926996417725255,0.4207662515853232,0.6488287926572567,0.36952040733267444,0.03865389339424059,0.5028517675344484,0.6293364312680705,0.00741868297179011,0.06933239815971567
91,0.23055408558952623,0.6947927487771425,0.41226228993311165,0.6526092006117407,0.37731842071563876,0.059599086818959854,0.5085359526293927,0.6233242822035384,0.07227949515288293,0.08776943821381955
92,0.22210489822761464,0.6909264823795914,0.39959761472000266,0.6532241905263019,0.3847235286853253,0.11982966614238799,0.5250412438306875,0.6174038450110778,0.07844523161272011,0.1735352064104089
93,0.21691125450417933,0.6919169878200523,0.39299684398048995,0.6541105210679746,0.3846731487105092,0.10143451445737471,0.5478245783188621,0.6113202112361393,0.045082285776849085,0.15084184740784476
94,0.21242808988762893,0.6919226538217241,0.3875288610620663,0.6516616467525089,0.3847761844914645,0.08414958059034168,0.5774529782190859,0.6051676032665599,0.011236778145899238,0.11610208228847932
95,0.20685718148596471,0.6892393615249317,0.3794570767539239,0.6536316687105842,0.3883783620806974,0.08737619794402897,0.6095347338756584,0.598795019723002,0.00665307545088233,0.09800046223111249
96,0.20385614128511712,0.6895583281344898,0.37782231897419083,0.6495283705227918,0.38838410995665257,0.08906674170977427,0.6416187672251372,0.5922707962057456,0.020699762715668486,0.07992546732203806
97,0.2012329303056085,0.6912158354986117,0.3781471230650737,0.6484445905615894,0.38901698861646117,0.10976256197770173,0.668705430327777,0.5856742057738066,0.0568240369916695,0.1265854518898785
98,0.1954200951569113,0.6901464516387739,0.37130744683722716,0.6469789773289069,0.38988771037505143,0.14420130043150178,0.6946769484400521,0.5789577079866383,0.16406193334532557,0.17711273625626434
99,0.1939619960467696,0.6902915828991468,0.36953847249101496,0.6442153158783307,0.38724070314936765,0.09489216764809259,0.7231630902971502,0.5722784335151601,0.02811425555179339,0.11964642133191691
100,0.1811978388410259,0.688843357999604,0.3506622545811804,0.6452721847093399,0.38966952553786227,0.11380152139306976,0.7615065780292378,0.5654802429987845,0.0999511343719189,0.12595970374951637
