Frame,Center of Mass distance,Symmetry,Grounding,Arm fold,Leg fold,Kinetic Energy,Potential energy,Bone length coherence,Torque,Center velocity
1,0.10419650494016834,0.5023747567278583,0.14375446200436617,0.6419031628870145,0.8122648749902596,0.132940254581919,0.3992997256114028,0.16645477229291042,0.16456384575878777,0.15080005923285109
2,0.10776905946120596,0.49909091115282067,0.13382824882934496,0.6387039852166532,0.8192570794507412,0.132940254581919,0.3992997256114028,0.16049426197669545,0.16456384575878777,0.15080005923285109
3,0.11262778772306274,0.49552327521491674,0.12250785226647874,0.6340210763588997,0.8236240283344081,0.18082393924379697,0.3910810348671159,0.15315734914152387,0.06449990005621681,0.21086558857427964
4,0.1167756657740338,0.49255458948172065,0.11157366558571752,0.6295525525033344,0.8293012192904703,0.20216604595370016,0.38260873792900574,0.14515068122789998,0.14826447798378897,0.24428255165296586
5,0.12191152135728893,0.4880569108476272,0.09852000697079191,0.6257392313006908,0.837923572183717,0.2531743549875644,0.3735707639297553,0.13596635153299436,0.12694728315209997,0.30701050289067106
6,0.12880696125322,0.482925744056007,0.08389795174749516,0.623911739520843,0.8470521068688488,0.2944274934624914,0.3625795956998536,0.12603358251872326,0.08070591186992337,0.3658512780638491
7,0.13623719567314999,0.4777012250723753,0.06693076448092365,0.6232240226255102,0.8595783655604806,0.31589905041611227,0.34984201331734666,0.11564776204270596,0.026821660246764193,0.37225619071051974
8,0.14186657247156945,0.4747931589797892,0.048152684263769716,0.6155073261285184,0.8777254495109271,0.30815647047774436,0.33638868268198374,0.10583535579920368,0.026396329141431512,0.3381423592739354
9,0.14812746980173364,0.4724234672815773,0.8275198424487933,0.6022395236655914,0.8985986654280411,0.30561990570486564,0.32310265667253163,0.09697401514865595,0.2762514378483317,0.30984038292513155
10,0.15745198336737706,0.4673235872728995,0.8454890840996396,0.5892388139462312,0.915259148755977,0.2526652057533787,0.31059706081274124,0.08884878508500453,0.11072405628395175,0.23754959610685844
11,0.1705599869558935,0.4599462553311339,0.8631593162975725,0.5778428096228888,0.9239428748661062,0.23308640082320783,0.2987939245532859,0.08126940578532776,0.177962006555227,0.23388322255486504
12,0.18361749409913264,0.4515713925137285,0.8795319815456376,0.5686404780541946,0.9306693429003864,0.19576981139421112,0.28764060143770365,0.07418230514758375,0.08888880016100095,0.19302595391677238
13,0.1976423122638151,0.4418650745005146,0.893963754924719,0.5643829223692219,0.9320193233097195,0.17891643366436152,0.27712299201689156,0.0673598060201509,0.06159473710066777,0.16468090944225303
14,0.21177201353844602,0.4296559378917956,0.9074397692960563,0.5659548484745763,0.9364167157885325,0.1766906266444694,0.2667054023920974,0.06062886332293968,0.11845162294407004,0.11062941983933502
15,0.22316287609027197,0.42062485309374803,0.9179336381601676,0.5688550849840873,0.9403826147514498,0.13911647039622396,0.25707557407533776,0.05416840598062548,0.04560538105478933,0.09326983122371652
16,0.23285208765264653,0.4157620370193737,0.9272661310420682,0.5671422958549983,0.9440618137008499,0.11449552439742107,0.24900940819336417,0.04827439010096552,0.07402426456005907,0.1175214313114823
17,0.24151852668401663,0.413054417877699,0.9364696314267966,0.5654962817825784,0.9483415094350115,0.10132790059925134,0.2420332877853336,0.042896590358186645,0.045598654990191945,0.09693726431634493
18,0.2471162871101949,0.41344562504448984,0.9429365189681839,0.562556818780914,0.950539530515761,0.09355322581640943,0.23657093933274848,0.037945055894824685,0.06632853438118488,0.08694206672843892
19,0.2533368136201184,0.4153689322160524,0.9497089491714793,0.5585294683728929,0.9520802584875083,0.1165158301362124,0.23244869475294833,0.033355238894033114,0.06507303312893645,0.11544945198740875
20,0.2570273132490813,0.41997345897836297,0.9547100780118591,0.5548539745412702,0.9541140269562896,0.1358008810579097,0.2293148893359922,0.02910445833751222,0.14928439622850576,0.13439136820095168
21,0.2565926179564058,0.42742139343638136,0.9556710226476304,0.5526453625341445,0.9507085947091131,0.17841018962252897,0.22867611493037907,0.025098257662395776,0.21413347685991188,0.15460905546282622
22,0.25462316961625914,0.43674554604441185,0.9552568547249456,0.5488370517273765,0.9463002517833653,0.2342277041068177,0.23001152152201818,0.021272531080025806,0.20588142497895093,0.2294030103110028
23,0.2465728553796623,0.4492621833125381,0.9502366209392029,0.5444567687106162,0.9400064045245656,0.2860556598472826,0.23361633628052472,0.01766076594718817,0.22439735113303014,0.27619280766203635
24,0.23378853690935417,0.46303331741438813,0.9413352516189966,0.5410919383374627,0.9327275802312512,0.3412002054894827,0.2403791299362507,0.014203097692133609,0.2393552215717467,0.349762382330998
25,0.215024639560756,0.47740898479599825,0.9286065817710805,0.537389507647657,0.9283350824215552,0.3975458215139066,0.2500773205852927,0.010850875285926903,0.29850706602173976,0.42562007760472065
26,0.19031871189555472,0.49438451274041917,0.9114963291681186,0.5324587075678967,0.9235705289855392,0.46935063687797973,0.2628641336997607,0.007692081148143076,0.39003480062538554,0.5064369833048216
27,0.16070707083660352,0.5141790689001359,0.8908167610317919,0.5221000778207137,0.9170603649603506,0.5553440064339848,0.27890849043323956,0.00482718433199421,0.4220723788867974,0.5686248873274157
28,0.12543791748631555,0.5388988818464295,0.8653679162134513,0.500214148174704,0.9057833850676786,0.644071096922052,0.29928041518061554,0.0025286618618359873,0.19997472593512897,0.542727595261195
29,0.09591696987469472,0.5621089535683961,0.8424841832378477,0.46721850857214214,0.8921090378532478,0.6114846461189576,0.321834512665826,0.0008884686111752824,0.2264980538910743,0.43721898001374265
30,0.07079906553163949,0.5851821168088094,0.8223075357302075,0.4275522355452258,0.8805531982927942,0.5784249228706351,0.34324328295036394,6.30922547659091e-05,0.5617498353625439,0.3695871745215152
31,0.05330462057958233,0.6035572353397264,0.8080045672104421,0.39117227525675263,0.8699350199821158,0.4812309572209681,0.3615930882768986,0.0,0.4052415594968368,0.24185228544913212
32,0.03995652182284539,0.6200690877139359,0.7953470121100414,0.35876848651943033,0.8582045257222142,0.41728868649177414,0.3774157087021714,0.0006194786981788599,0.4695607980003137,0.16737073367734095
33,0.03322052857019542,0.6308543469912937,0.7863906307819825,0.33379001171271455,0.8447547628062533,0.3350151647733831,0.3901277658780143,0.0016762692529564505,0.42803968569281253,0.18902335451900795
34,0.028787255075306505,0.6392458765272651,0.7780633138959652,0.31702654118670515,0.830623997427802,0.2676448620197736,0.3999424235695355,0.003019257921624811,0.30486078090314894,0.15289117369329136
35,0.025692471145150865,0.6460024037284211,0.7704090369422976,0.30655997163138526,0.81663603842611,0.2249891916197376,0.4094857114113321,0.004550943065211227,0.1710225542756087,0.12496960821465936
36,0.02563153240020774,0.6516056594837666,0.09227163224199088,0.3006748025587948,0.8005868097060154,0.20773901894137264,0.4178212310316166,0.006191064084578288,0.1931781242975498,0.12434983336205864
37,0.025986100466807206,0.6554701614756706,0.09941389665993741,0.30101279812677306,0.7868628767803575,0.17497918255772257,0.42481104444110707,0.007804893882754579,0.09518518162315531,0.16622066765076035
38,0.022659243084717756,0.6604019486218254,0.10371322580200186,0.3001194016606042,0.7850240742808529,0.15402843928021398,0.4304588381525017,0.009523793009895478,0.07788257627041387,0.18138202800154224
39,0.019221326544148768,0.6630439017455767,0.10606683566478113,0.29743528131488656,0.7875843597164733,0.1509514135741229,0.4349646834201834,0.011295713957714127,0.26697318235631623,0.10188280568119838
40,0.016154725319163687,0.6639973234662223,0.10582730741229593,0.29221409969051365,0.7939655824160909,0.11724011836197909,0.43803658459476763,0.013120184093720203,0.08856774221563236,0.1080712292476503
41,0.015105498405007672,0.6616509533752241,0.09970142608764644,0.2795775471862165,0.8035871341514501,0.14528894309121881,0.4377649273675591,0.01505547260479311,0.24604628955825822,0.12964501836927533
42,0.016397145249086028,0.6577980126970319,0.763090768215197,0.26306454290972997,0.8095551883313991,0.18925193215919042,0.4350333187981058,0.01708230869088719,0.06365937945206156,0.17239190554150166
43,0.019595798581566584,0.6520002993311145,0.7703035503511163,0.250806110895465,0.8126956914708693,0.20452285890328536,0.4316704746816118,0.019146391461074514,0.24031971738625454,0.20981345538713322
44,0.025076338594095134,0.6431761489016637,0.7797439008843816,0.2405652624852202,0.8152164609667393,0.25905126099705333,0.42663158039128846,0.021194416926904165,0.16767631283142703,0.28865730947324136
45,0.02959541223324016,0.6318107806194799,0.7878467858363477,0.2321106583069158,0.817208896411567,0.3061299828236337,0.4199252783168983,0.02317995235297625,0.21805546682047286,0.3805241707976973
46,0.03462289257715449,0.6161804259605735,0.7985419218882579,0.22326081527772143,0.8211377103390319,0.3590704522539523,0.41182697788217276,0.025119728534645513,0.1932576424050033,0.4549703554634729
47,0.03449169571965053,0.5988467711741964,0.8019103284515496,0.21936985140855758,0.8230458557622923,0.3634095995471836,0.4058041832676073,0.026946323355987314,0.3685197776566383,0.4819396745327456
48,0.03434718800847889,0.5773366082529138,0.8077211999315443,0.21462108691625353,0.8271447227043816,0.4334672255197853,0.4017228657313759,0.028757292183716553,0.44667631920271256,0.5738139816260459
49,0.03475650244261305,0.5520097052560292,0.8150175491454384,0.20803592200958648,0.8293615274937204,0.5147237369544206,0.39509012644278796,0.030624633554541588,0.2725725688917221,0.6618658546368427
50,0.032919097921043854,0.5299197153270768,0.8172589345121988,0.19551918022742545,0.8271196950115816,0.5393386404217905,0.39034473601742564,0.032691776372189625,0.18157134526577154,0.613280692501383
51,0.03079843998093571,0.5091749831621237,0.8182647245956116,0.1771539663820684,0.82590814286454,0.5624498927960351,0.3896616759162478,0.035032655129222746,0.14113201142439674,0.5782545184947702
52,0.029915695060746355,0.4940548894291256,0.8204464752400611,0.15279489276746808,0.8272401162165709,0.5740021792429087,0.3911000365393281,0.03782910069352757,0.49522629788057704,0.49428056215627425
53,0.024359883865069883,0.4878568754825784,0.8159660243927632,0.12208698138375255,0.8285302589468261,0.4871925958809516,0.3974365667176677,0.0411000920359537,0.173739194376924,0.35067831430302365
54,0.026579624550439284,0.4795012579871258,0.8168421737755004,0.09431055733463986,0.8283512428832256,0.45590991691845806,0.4045139117540787,0.044815102653242886,0.6926341507453492,0.3038568527766944
55,0.02833930077958772,0.473241352954142,0.8170338714326311,0.0737767508972529,0.8270111826176687,0.3290877173146233,0.40908560738778504,0.048873757732243325,0.2403477581823381,0.18045984430626508
56,0.03514925315976871,0.46584975106641585,0.8214351049886213,0.05924950489396013,0.824150577808285,0.2877243103818599,0.4115817644324544,0.053185889508084824,0.2983265145950412,0.15819185285776693
57,0.040653662687815686,0.46030812309234065,0.8222338281686786,0.05066373759952397,0.8175952447598942,0.2371872451116339,0.4126357754612507,0.057582110745370244,0.14542518355257142,0.1333438645202008
58,0.04716616888880346,0.45471267314467767,0.8219798006273021,0.048391892240102825,0.8082127076201653,0.21459209692374687,0.414426545720328,0.061960691885810944,0.17626004701656664,0.15538245520756772
59,0.05293885251225019,0.4495866882167828,0.8193569304408169,0.04406794163157432,0.7956714949259873,0.19100740556536994,0.4163772192817077,0.06624152518733625,0.38718653111246865,0.1630809133753381
60,0.057470590173644864,0.44734271104255874,0.8156807295613421,0.044849231470784276,0.7847214073594837,0.11540402468119013,0.4197343586154754,0.07036201078044815,0.09531061256964148,0.09111610688881033
61,0.05670265772855843,0.4473637215485421,0.8108436303232909,0.04882608028585536,0.7797836101843971,0.08734391257741125,0.42433915574268627,0.07434127869584763,0.03116435386478304,0.08058261902308061
62,0.05691138885408448,0.44707930017593533,0.8071752420018306,0.04798644389816818,0.7779362276220052,0.08649850133405705,0.42937596403841843,0.0782119410364634,0.10398379856256153,0.05575309038226707
63,0.056170854459877705,0.4468596001556165,0.8034904438969425,0.04819925806939196,0.7766800091744851,0.06911426986039572,0.4341969112830234,0.0820074406831236,0.13109816596554857,0.057562628261742944
64,0.05690264036331066,0.4448478046142047,0.8051974366491281,0.04945008770888493,0.7795759013382386,0.04949670231156972,0.43609961183935586,0.08574366027800169,0.14505585325098927,0.04259836334335463
65,0.059387609818325304,0.4409008823830942,0.8088893991085272,0.050317641681744955,0.7823880582130701,0.08307987224501534,0.4343777739671782,0.08946717014835874,0.15413233498752854,0.0839801296438156
66,0.06568497854720225,0.433706042433847,0.8193006731999185,0.050883204394780966,0.7872137175512547,0.1251904295610838,0.42842481861844395,0.09317551441608242,0.03154068337626035,0.1077438245296803
67,0.07141467013562604,0.42740611606368006,0.8254825900116363,0.05346690014941945,0.7875982174646429,0.11946175415135525,0.421040548039286,0.09687380121864467,0.03370551581303601,0.12802523345631212
68,0.07865026353939568,0.41986839325182057,0.8329214757643261,0.05328063621745519,0.7864982298899701,0.1318414419120202,0.4153539437454828,0.10054537865018962,0.1986949691852549,0.14489562460451844
69,0.087075314009141,0.41041384404680487,0.8409653741974847,0.05581539757218545,0.785403662423787,0.18283517975005567,0.40857218052946015,0.10419714910033283,0.12164343511769847,0.20691798719083868
70,0.09121481838491573,0.40226919836992014,0.8454119478827377,0.06044536585866472,0.7857026455064146,0.163340084386908,0.4024605659360476,0.10778885066184365,0.2828083354623073,0.19481832130244253
71,0.09906855661724306,0.39060520091689993,0.852544608654042,0.06617575155419493,0.7848649999633343,0.23624346014115086,0.39643264827247965,0.11137167773097757,0.07359506403067975,0.28449725649196256
72,0.10049850282461889,0.3809094194177308,0.8556424414286341,0.07311737587424348,0.787032821410093,0.23033909400395589,0.3908361362663267,0.1149323479824659,0.1652824760683856,0.3030622572116742
73,0.10136083810024435,0.3710109654778066,0.8565682466113275,0.07936033852986886,0.7877196995852033,0.27555541409553297,0.3879849411072665,0.11851238901042167,0.04146112808289916,0.34785649331801577
74,0.10393019143769062,0.36111539030676526,0.8585304950799487,0.08489958958293665,0.787827290102913,0.2866303030005233,0.38557517341997993,0.12212711749719513,0.6427444960433496,0.35210926392716474
75,0.11072152197673821,0.34985140792961444,0.8565000487795773,0.08970466545753107,0.7823698859240166,0.44255285981909764,0.3843360579707483,0.12585634253233238,0.08485174449511741,0.47335743540903685
76,0.11292854203052863,0.34140574613522306,0.8534642388454664,0.10017266863472582,0.7829146912528065,0.41829946984309796,0.3853515511843603,0.12968594703840755,0.4091024398420756,0.43566315650830384
77,0.11470250281245145,0.33339480853996944,0.84626433548968,0.09922495358261514,0.7844162840642311,0.5281645840838357,0.38886573322202395,0.1336690728924444,0.7131059041386356,0.5333054759713111
78,0.11897311891887441,0.32837614140948473,0.8454054658477038,0.09736264129142881,0.7864200595686724,0.33786719391655967,0.3925971114999585,0.1377841508605477,0.03234084505555278,0.3112537709468535
79,0.12289530606582637,0.3269505251641385,0.8403902129941452,0.09166488593282385,0.7852904515929144,0.3336482685664795,0.3976948371561085,0.14205107828719687,0.030119194141382966,0.26197852134638877
80,0.13112946555025887,0.3229562322326412,0.8379832286902588,0.08358542214769937,0.7840288644953882,0.3472509093516454,0.40397358205179523,0.14644264187998013,0.310950473089738,0.25794821677799573
81,0.13817417723070338,0.32150342472971444,0.8350260901918736,0.0756246206405562,0.7813013212101824,0.25764261462500415,0.4096579880631884,0.1509191546893287,0.2543042183815653,0.13756446700771813
82,0.14698740730220966,0.31962896041192157,0.8344657012052162,0.0682311376254167,0.7757214166567278,0.1858122707530831,0.41533844172689266,0.1554132073249782,0.05536354663554994,0.07382352399674519
83,0.1553562024053609,0.31639599911916655,0.8343808547782212,0.06357466733967991,0.7680787994495752,0.17218036074331544,0.41846566740537794,0.15988065547097924,0.0654765069836836,0.1396693119483819
84,0.15948269611613525,0.30987083586517045,0.8329545341429985,0.0750700308075167,0.7610564451572733,0.16635771069355323,0.4190020617994113,0.16418463051223953,0.07075515001939489,0.1889667068134798
85,0.16138218837003104,0.30504093949759353,0.8279717938125302,0.08517929313000691,0.753043762796653,0.1445055373841221,0.41972954364844683,0.1683139821862563,0.12107539528900406,0.15995891430602774
86,0.159776299788713,0.30439002487621053,0.826928254404039,0.09393257305852576,0.7551928886705063,0.09035994212869546,0.421094967813094,0.17236399459473323,0.058150650740516265,0.13978079291702167
87,0.159686766304759,0.3029036593526805,0.8291785781559511,0.0975272217390487,0.7590500125329935,0.07086562266704785,0.4203955884430045,0.1763481464721376,0.06964092861784063,0.09049148271504974
88,0.1619106754567417,0.29990944520823637,0.8365850878494459,0.1046853433540995,0.7648772446817622,0.10159146541860456,0.4156704661431516,0.18028343112012218,0.1667190378897443,0.11720659735382506
89,0.1702517135817442,0.2926424091775313,0.8474356392202843,0.10974875155030676,0.7693896315488605,0.16557062006120754,0.4064117242233279,0.18417757670156976,0.02048169705738015,0.15131676317062184
90,0.1775218951208276,0.28756714065172434,0.8604810417695352,0.1170829347869339,0.7767776372869686,0.16416699306408364,0.3949804977764554,0.18802405063939873,0.08723616813732993,0.17114380874614504
91,0.18542718010694187,0.28149370073355795,0.8703636547299608,0.12726045632761393,0.7827445412872917,0.19273014161405577,0.38434904260141306,0.19179074553774195,0.08664914151771301,0.22170986305995705
92,0.1958207546614373,0.2744729549862385,0.8778662350058511,0.13776694589365052,0.7846966962982164,0.22976147673818012,0.3758624460176745,0.19548767743817366,0.05658961315031523,0.24643544188602895
93,0.2127141069565255,0.26621594082700273,0.8954194835294111,0.15342625545911734,0.7854746663366443,0.2568293463564627,0.3628404085832163,0.19908360521753216,0.23063384386444077,0.263274956498039
94,0.21749281778412172,0.26034910991371707,0.8916924839648557,0.17147451206231612,0.78352817048557,0.361550367177433,0.3541835750680065,0.20260762452515607,0.041364912094305276,0.41899714792667336
95,0.2218440424669705,0.2568782875051678,0.8897154632795523,0.19966262203921845,0.7828371166632476,0.339039627621512,0.3549778521353493,0.20605162419362394,0.019011943898104577,0.3968431511766401
96,0.22688019167700332,0.2528940933235708,0.8918368286502658,0.23431534231993753,0.783098594576821,0.35048621873686664,0.35109249205873455,0.20944156096554523,0.11683184256458402,0.4322177352943817
97,0.23644784280782222,0.24786357493307132,0.896577038522549,0.27378201468053864,0.7814693881148886,0.4084027589529948,0.34139775140129247,0.21275252115472423,0.20057531074656867,0.504253385765033
98,0.2492514941635315,0.237488868610633,0.8964832537104024,0.30998085759269134,0.7793956370616347,0.5153107249490865,0.33242504965317515,0.21600961864064624,0.05897899507297721,0.5267786223208701
99,0.2594941302189187,0.22791110955436633,0.8920902762200867,0.3453313258033032,0.7748562128608565,0.4997848119663703,0.3285066985989577,0.21921974997831226,0.17515275935207944,0.5118851158476154
