Frame,Center of Mass distance,Symmetry,Grounding,Arm fold,Leg fold,Kinetic Energy,Potential energy,Bone length coherence,Torque,Center velocity
1,0.05325114899001468,0.731215478438058,0.0,0.8160656020536817,0.29243386836305035,0.0,0.6781410302674904,0.5914928384289868,0.011136080244535438,0.0
2,0.05299077209631636,0.7303481241943178,0.00013503699691780902,0.8141409231756809,0.2932333485870422,0.0,0.6781410302674904,0.5909882338492282,0.011136080244535438,0.0
3,0.05274449414277865,0.729427869736396,0.0005422171702837813,0.814068711056445,0.29418334671148755,0.0032806928188975864,0.6787789999866543,0.5908231706442328,0.046253389911896,0.005959846340997267
4,0.05257174109832037,0.7280065038525098,0.0005723312138265882,0.8134601161428437,0.29503121505801516,0.021694901849981327,0.6792296595308882,0.5912939721413293,0.03885884471265345,0.02329266753877787
5,0.05164134493195836,0.7268029929466379,0.001403380705563254,0.8129793547399512,0.2975591347312271,0.011820590129079303,0.6797989740954147,0.5919189438392239,0.029378179071654856,0.012255748222637664
6,0.04982396397338755,0.7246920889005052,0.002679393175492092,0.8126667212691461,0.3026324858049084,0.03424236207784821,0.6808915626694152,0.5928289878035841,0.011463632255760442,0.014450671980109447
7,0.046056628676260675,0.7232635732399026,0.003990931397334671,0.8123067375489362,0.31181295399098236,0.05167539987258671,0.6817117192368264,0.5947374419024517,0.043287501305872916,0.019254909230199863
8,0.04041768498100309,0.7219447738316284,0.0055333022040499995,0.8133977677433025,0.32623118884755703,0.08339252687549983,0.6823107121551308,0.5969643182048123,0.06236287634012489,0.024508135872054762
9,0.033493854940863974,0.7195133567370134,0.007885187869336863,0.8151032530140898,0.3462419929882916,0.12117055429102996,0.6837633324305856,0.5990790291860766,0.02117718045997781,0.020937077998120033
10,0.026461504617286854,0.7171426062827557,0.00948270643710225,0.8161264997146673,0.3685909432482182,0.13628228707356535,0.6853353856811278,0.6007566136578346,0.012546579480247497,0.010639749435245609
11,0.02026714600584723,0.7154915923119712,0.009549134244095862,0.8147940988026628,0.3900553583748779,0.13490659604043256,0.6859031493393679,0.6017537947639355,0.10527958875773623,0.038228047523778494
12,0.015750935647688605,0.7137492882306425,0.007739118710899254,0.81131655219123,0.4083208135798145,0.15576417403840578,0.685041681660424,0.6019061366912365,0.013129110978054546,0.10353321820039436
13,0.013416350005743802,0.7109540466950901,0.006050762243657601,0.8084583323921484,0.42205429349435736,0.15401159740763942,0.6837861712876019,0.6010732528875049,0.014159541923799179,0.12981917629503906
14,0.012410222268197298,0.7076326516462559,0.004454884931709603,0.8068811593844314,0.43244754681080755,0.15747247313460092,0.6833638043247481,0.5990124068914026,0.016719247729269505,0.1602902113458938
15,0.01222423536732153,0.702356214375477,0.0044266704656470025,0.8069941248932359,0.4409992286936555,0.17247836091220314,0.684237896715619,0.5954615739835263,0.07168865183593452,0.19393667670300044
16,0.01303955159727969,0.694708872587328,0.004765100546363531,0.8068378829198293,0.44772733386078023,0.20550244418936964,0.686567383843205,0.5903969607965184,0.09498917179162869,0.23451796787691473
17,0.014651864268976649,0.683949583185424,0.006207876610163506,0.8063988918135432,0.4544193155468983,0.2518709847459159,0.6904648149729192,0.583616143406987,0.02978024454604325,0.2875989175332707
18,0.016083885125970806,0.6719813505625816,0.0075788601261740545,0.8080255743344136,0.46251431647388463,0.2790106785241066,0.695695067226021,0.5749694647946779,0.10224111859287914,0.31613216397978255
19,0.01779863769956467,0.6581277324639864,0.007616191520417875,0.8085217213485613,0.4717970806159675,0.32115297319002695,0.7004712504667605,0.5644878859969173,0.03217676501480291,0.35576393226611097
20,0.01935880651705781,0.6443178807450102,0.005687728981538633,0.8077630067792748,0.4811778998860387,0.34431292891092163,0.7037689609115921,0.5521893723847409,0.05654924742993653,0.3925440354044921
21,0.020665627907695588,0.6306802491840018,0.0014265722504041452,0.8035387643275618,0.49019905759634097,0.3711472079896204,0.7047416011210115,0.5382143308499687,0.030795511858438547,0.42868395156418093
22,0.02085561902795443,0.6184811333571598,0.005597913931474691,0.7950612696010102,0.5000257637327254,0.38603238849168614,0.702554265333983,0.5226867037818902,0.0879667931486133,0.4582328069935007
23,0.019697659529382284,0.6088065267485618,0.016796481569635882,0.7799071011535821,0.5102909493011811,0.40301693962123275,0.6959197151241505,0.5060732738505989,0.14173769702797734,0.4694587715314914
24,0.016398851166771682,0.6033519848515043,0.03307109597553764,0.7556007202534407,0.5210232128141413,0.4309730590842405,0.6833215867067465,0.4887417954978097,0.22142410359490872,0.49223086609583655
25,0.011774601586698094,0.6005509180156614,0.05626409681125694,0.7164799553772485,0.5318497515500348,0.4888930623444291,0.6636095137617463,0.47126651671692066,0.1969533813581261,0.5156286044031172
26,0.00674327484173736,0.6010510360028579,0.08540856260902724,0.6631136982976862,0.5428342965615225,0.5500010706442591,0.6357690124511477,0.4543407070464008,0.048446870188452194,0.5052218745734942
27,0.002423661154616496,0.6016932561305539,0.11468767400725659,0.6039859342132581,0.5561408312633586,0.5402719124419031,0.6038231669179666,0.4384145778294209,0.08661049661708443,0.4468758195833243
28,0.0,0.6005027719410266,0.1430535687504909,0.5470733860230166,0.5716087472699937,0.5182669342896716,0.5718390966945577,0.42371721728840434,0.08010517505626598,0.37355390286804585
29,0.0018196184563138568,0.596872493657007,0.171045137139114,0.4927849289256963,0.5863298250805054,0.4976740953675412,0.5396255512833555,0.41035579007261686,0.20250424528845246,0.3241942603986969
30,0.006601845171771943,0.5899466133868481,0.19513290681006853,0.44825515679836064,0.6006930097346611,0.42543713932974586,0.5097409208420131,0.39818281675282596,0.2325084465048644,0.2820868051422224
31,0.013080726108001874,0.5801724233858379,0.2140812339241898,0.4158196367328886,0.6133504147883811,0.33703262774527015,0.48545750968958495,0.3868659913451989,0.21640838739086743,0.25011431505653986
32,0.020049633244954717,0.5686445527111162,0.22786212580674206,0.3984935069857356,0.6248949273155393,0.2586990793051196,0.46760467611600137,0.3759977340336662,0.15563868429749766,0.23295549590483508
33,0.026478416421801827,0.5567285603393235,0.2377281972473449,0.3901215240147234,0.6340257150755502,0.20776698841575797,0.45548277728990905,0.36535493680108183,0.07065542463061115,0.20283696170803517
34,0.032883849258047854,0.5452799526209987,0.24614182252230488,0.3873184698218305,0.6396107345500097,0.18208774504704064,0.4465350559239944,0.35492664585020345,0.04286673527238187,0.17508741893260146
35,0.04062230177853189,0.5325561017099514,0.2551724451749737,0.3836464538537565,0.6435894967424349,0.20125387316176202,0.4377350348314992,0.34472524364797075,0.05070433680651591,0.1971106096247887
36,0.04935277033629398,0.5182970837659164,0.2642762328723477,0.3818049891100477,0.6472960012254521,0.22443050112768892,0.42803386792113185,0.3348486187708737,0.03045602591467672,0.22398784800844546
37,0.05885183769063421,0.5036268642411473,0.2737861230981708,0.3827769812206005,0.6515457796597036,0.2393301485015221,0.4176518716836297,0.32530523908985143,0.009448257329652307,0.23636684365692112
38,0.06848149295715919,0.48809342533902306,0.2835126695291279,0.3822969929258434,0.6567044259980012,0.2395853629492764,0.40688841720548247,0.31614518631773014,0.016694633390607796,0.2403263124509328
39,0.07668728265265823,0.470832636035988,0.2924324800163711,0.3803329194375057,0.6655007791254651,0.23954901499203635,0.3966740569269672,0.3073662384567105,0.008715621570095186,0.2312456462592362
40,0.08246307509467223,0.450611837602494,0.2994974052803768,0.38116298285173394,0.6812193649882,0.25203922101629667,0.3879734963732504,0.2988470772934214,0.022477934182367734,0.1817962649732273
41,0.08807692895246327,0.42870980515631646,0.3073122879084679,0.38074218735155185,0.7058987687108887,0.28021101757979955,0.3796449151426974,0.2906614643691818,0.008286373593398013,0.14341856256017152
42,0.09410944682796318,0.40711414160735465,0.3136545387508789,0.38416067817766963,0.7315207077355652,0.2930181143889117,0.37168873811409386,0.2826569395048295,0.005788716512205893,0.14060781575885756
43,0.10409581954687284,0.3872770788677107,0.3231211561842132,0.3833996484644088,0.754157222633039,0.2830089547980644,0.3625761006732744,0.2748551130592181,0.005260199879898279,0.162670024709986
44,0.11646833174403225,0.3688888735262267,0.3340107241460526,0.378677996391825,0.7717174176756288,0.2760968561867281,0.35056979752792905,0.26727382229986046,0.00473763366943241,0.1995553196002825
45,0.1307465875176487,0.35298077555661794,0.34585262753429274,0.373626236099553,0.7835699137749057,0.27239500622790486,0.33729512601017586,0.2598247618580506,0.022466013490173062,0.2309448824801583
46,0.1464368892086396,0.3368734800149888,0.3583529119524894,0.36974211062286727,0.7924847371552939,0.29053011478898805,0.3235513300865579,0.2524389374881995,0.012282091414705425,0.27175440361561787
47,0.16169513144867,0.32111921800006243,0.3703816627915583,0.36726516671392484,0.7996649820080168,0.2851892167931089,0.3104170595119244,0.24502514305404252,0.00285178426670257,0.27248133274197883
48,0.17696275628119806,0.3036004111963779,0.382164115667011,0.36661485586709364,0.8061966002305988,0.2967734344223393,0.29841745745054016,0.2374994818775117,0.015187032270538142,0.28501875627618384
49,0.19257009418497242,0.2836518423812352,0.39363626942989843,0.368369218664907,0.8125384688457682,0.323777809536878,0.2876053458924636,0.22974097281294084,0.025805114891571532,0.3056914763102548
50,0.20961179836611143,0.26191291550937656,0.40571061012849263,0.3742394629532853,0.8197340459423004,0.35775205869012544,0.27724588527000454,0.22167883161338856,0.018163471623892244,0.32629455481965497
51,0.22793963207218576,0.2381338647254454,0.4183458689201737,0.3818504538737629,0.8273822308949899,0.3838930153947515,0.26641054144745957,0.21321904748634135,0.027013520480368817,0.32261175855699836
52,0.24993785602939486,0.21312382556766027,0.4331603814456977,0.38791669914913735,0.8345775701737577,0.413095603841105,0.2541015337314849,0.2043720667716969,0.021538277821900712,0.3392092140164407
53,0.27534668568025816,0.18800501588913174,0.44950812436596843,0.38978397646505686,0.8400845161513748,0.4317126049825086,0.23970898610515695,0.19518941732005451,0.0196102017861339,0.35797014282317147
54,0.3049388835086081,0.16449155122935505,0.4675369516072756,0.3836924780367885,0.8458952623107555,0.44790162654635185,0.22373255239806508,0.18577654277217848,0.07462621136514948,0.38368307854502987
55,0.34349018072335746,0.14251976486005186,0.48945972481272776,0.3654045933221671,0.8526053971407523,0.522107026634078,0.20508864992904471,0.17629171600990026,0.1210135894586724,0.45523019395184516
56,0.3928441483355203,0.1253455204553407,0.5147955795116184,0.32720547325392874,0.8604764327686654,0.6333102578871702,0.1830214105130707,0.16697916868498325,0.07552515457257793,0.5546968510090394
57,0.4483715216893531,0.11193921840861783,0.5401137744022861,0.27285940878159554,0.86908940090001,0.7027210798945664,0.15929694844038048,0.1580729006235148,0.013811644390494164,0.5715042388779362
58,0.50219621508006,0.097493961927807,0.5618721610950271,0.21155431620503343,0.8784393055293268,0.6782056057093997,0.13716411565175776,0.149674979843958,0.06992229186768356,0.501619870365529
59,0.5502672555226514,0.08124287344844743,0.5794650457418635,0.157346273474348,0.8925627113570539,0.5997916506619564,0.11912250099625028,0.14180411441039673,0.05585777597534085,0.41906397059380873
60,0.593593253105146,0.06255081761208511,0.5937501606357856,0.10673635776173544,0.9105179631707477,0.5380323219918598,0.10526590519191673,0.1344759512058747,0.048374066945385714,0.32755909186937987
61,0.6329215358213881,0.041745342314189256,0.605410309945781,0.05845679672059616,0.9327691689151145,0.48646890736937093,0.0943805789529729,0.1277049461045986,0.036939940930036205,0.24574567337880632
62,0.6709123107113278,0.020528278295892353,0.6151495063102876,0.023711089539865362,0.9528701926997514,0.4472577112324697,0.08557382052757596,0.1214615036292381,0.09130644443976425,0.24414598735439408
63,0.7027608309836985,0.005255341441234006,0.6222796851919105,0.0234284452160127,0.9689522511463587,0.3524103578573291,0.0790606421235831,0.11561764148522728,0.044373973666016274,0.22561423519223872
64,0.7327938631529002,0.0,0.6281487951204029,0.022951197674544385,0.981275489915453,0.31493963963743,0.07455463751653062,0.11004134772572431,0.03841125025903999,0.2579704152550257
65,0.7582199316870307,0.003035588718286454,0.6327365461033387,0.023594939272771346,0.9903958421186824,0.27833378388655855,0.07129062573674856,0.10464215525199475,0.026720512247675056,0.24257604946423944
66,0.7802921433617852,0.00681553442254922,0.6365169140337487,0.024764145103906836,0.9951729831423956,0.24595615870769552,0.06887038119206224,0.09941486699437448,0.0,0.21916084553188853
67,0.8011311976898793,0.01108628618561278,0.6399878387051837,0.025779153950720946,0.9977726606929669,0.24651117564129713,0.06671924977967514,0.09437959162519313,0.0022682126721289895,0.2192901881104549
68,0.8188493189131482,0.017801500313201997,0.6427884421453578,0.02565499643514303,0.9979246227751281,0.254127637184491,0.0648470726829296,0.089545023196368,0.016268730935212933,0.23850817642736538
69,0.8322685990698061,0.030382216150222272,0.6448869533990528,0.025807973353745347,0.9946474234677614,0.27896772842179357,0.06366114251958724,0.08489007473446608,0.028223265105921824,0.28001369102911655
70,0.8392342465713114,0.04978955535732753,0.6462494305653579,0.026491748579108916,0.9879636634050503,0.316033358998939,0.06333022960073173,0.08038454605386643,0.05226523217924605,0.3286609632183002
71,0.8332375534693197,0.07180414319353647,0.645869682065137,0.02706005397195318,0.9743819426277123,0.28176414850716824,0.06423976348004164,0.076017048265024,0.030911283040960427,0.28607706967271307
72,0.8178089347627703,0.09923492271948509,0.6443157859373637,0.02746058576371178,0.9565583357306777,0.3329441660059281,0.06631969442053931,0.07179596382122011,0.055377332492983336,0.29548117238740945
73,0.7943225589153751,0.1250589973900571,0.6410640432828768,0.027540098844685588,0.934462996333434,0.31142095568726796,0.06944970241019523,0.06775215380685137,0.0038041258611625287,0.24856948569909387
74,0.7728677129365578,0.1506717606204029,0.6375606796729336,0.02840620092858493,0.9132593401013199,0.30808164819596656,0.07348559652356453,0.06387527875230896,0.002989335688370356,0.265470175542488
75,0.7548863759249047,0.17438245288277698,0.6343971943106045,0.030507469021505928,0.896043793329418,0.30108119055748944,0.07788128179617371,0.060153071914966626,0.02058655603789652,0.26588873961160203
76,0.7369312920833824,0.19812193930068112,0.6311089213199597,0.0329224003284811,0.8805667452282003,0.31334430739047425,0.08303388018287283,0.056564506600554565,0.0455816017714808,0.2953212393292543
77,0.7196776038543863,0.22446823623331688,0.6279339967437936,0.03450108283800959,0.8664526529450863,0.34042261654780065,0.08915217496931019,0.053074162786835195,0.06554362647699287,0.33027655421577723
78,0.6981996237972202,0.25656176694999544,0.6240645365421136,0.03475130649054945,0.8539893083887156,0.38734057279504064,0.09642798211613056,0.0496157095691953,0.09337996113848655,0.39010305676186935
79,0.67172095213453,0.29522666427871963,0.6189247808681133,0.03456177538068747,0.8397123843971841,0.44854486525513104,0.10548986097080618,0.04611843072043235,0.18620374457214503,0.4607803479136834
80,0.6374950896831592,0.3412989971936764,0.6114734272709892,0.036776356778292184,0.8217563184041635,0.5505963657480243,0.11710978881946395,0.04251802429434894,0.14006246902780078,0.5627932044972606
81,0.5962006698666548,0.39158151762768945,0.6010384428123002,0.07833992948135364,0.7991988441919959,0.6288971317419622,0.13178065957662938,0.0387681641854424,0.22838556544406866,0.6209008890686666
82,0.5486900065485848,0.44152404529796396,0.58770127970444,0.1271692551764851,0.7788543541621212,0.72493616605479,0.1499588811779204,0.03486247475687602,0.20866539141143312,0.7041690054080976
83,0.5006226805576859,0.487522258413421,0.5721662010795796,0.18047938888559173,0.7618046001662947,0.8043890738440701,0.17059318224835368,0.030858571399078168,0.2024640569949898,0.8094020401032166
84,0.45052728338100845,0.5295617008517945,0.5531462536321107,0.23605841545803116,0.7440149546520056,0.86821479706202,0.19307401237711722,0.026825808440461806,0.10592235176067523,0.863566270577886
85,0.3990888398424664,0.5679652518128006,0.5294023074850756,0.2959777870951527,0.7202848232964919,0.9037748611585498,0.21859714186220486,0.02283572163406001,0.3352325364121288,0.8630153996289863
86,0.3549338118291185,0.5992349805154012,0.5042798943217368,0.3484488455443939,0.6908045508525739,0.789282508936141,0.24524835821376775,0.01902445768789247,0.5426864812493489,0.6884974970835911
87,0.3178829758750185,0.6251704263873511,0.4801873443953651,0.3806826555815768,0.6605789038846704,0.6287042132030723,0.27112571380470973,0.015521740048493644,0.7524499721897895,0.5367746717716628
88,0.2927501644404656,0.6480483875821856,0.4623022588082202,0.3843963222874829,0.6373739665678501,0.4238891507998233,0.2945544893569336,0.01242711753437094,0.6232590638347655,0.3223133721018821
89,0.28126459476885524,0.6658104633873929,0.45306359067251195,0.3648934708784568,0.6204279942660099,0.2976598093186797,0.31163047522983656,0.00978901719802145,0.12455030385636222,0.08340034819711559
90,0.2742544401620179,0.6813777042765427,0.44760412149645673,0.33330493817913126,0.6077629940143642,0.31292790312515345,0.32345619288163036,0.00759495057877436,0.19066077447047325,0.05362260155698791
91,0.27190177344262334,0.6924783250186263,0.4444089069278648,0.3087312255690073,0.5971196213738605,0.2588300256574654,0.33243480753651283,0.0057853445262946905,0.09084470903122951,0.06218452720177383
92,0.2689633561002812,0.7023922440575028,0.4408315224196264,0.2888724637200695,0.5894694732585016,0.20626759300095654,0.3394475749289364,0.004286944471292835,0.01891307845222116,0.02932041658471607
93,0.26264738627315665,0.7121898403721133,0.4356344036806191,0.2792542653124901,0.5849715229438672,0.17187768958834163,0.3473657989601809,0.003039399895805786,0.015125070134039449,0.06364203927937515
94,0.2551967739916063,0.720923217598143,0.43059624409009384,0.2742785585023002,0.584513682839733,0.1532213509452775,0.3553881758891753,0.002027211989585417,0.07887048803375175,0.10576337040689762
95,0.2435610190033846,0.7302962014242041,0.4244770370430248,0.2740761277132747,0.5879683905924956,0.1728966549975404,0.3632968267325886,0.0012256643825463984,0.08468246152652455,0.11719337921464269
96,0.22953895079560252,0.740785737635423,0.4172181670057366,0.27566621286458615,0.5929426856998775,0.20071590770381606,0.3726712351964107,0.0006304780152992885,0.08682462541046525,0.1587302702005417
97,0.21373966733561323,0.753194488203647,0.4085742753661144,0.2778647590678814,0.5973497404349125,0.22700731274212985,0.3838310489330448,0.00022806683593379576,0.03057616116626088,0.18954608233863035
98,0.19722543875899756,0.7677516433933632,0.39878264231336263,0.28108328438404384,0.5991701938415559,0.2416975276902859,0.39695868834192183,1.912144109892188e-05,0.07461357333366236,0.20662466546818045
99,0.18264132461989285,0.7822365258132921,0.3893287374370113,0.28201144677579065,0.596954808265848,0.23326268350583335,0.41037554250677555,0.0,0.09796498555698444,0.2024630264224016
100,0.17103072385984394,0.7984925861854201,0.37866972808252364,0.28760899069163937,0.5825383719786849,0.2232481329528952,0.42328399300659403,0.0001347896157296331,0.015228992447053797,0.18230476186044775
