Frame,Center of Mass distance,Symmetry,Grounding,Arm fold,Leg fold,Kinetic Energy,Potential energy,Bone length coherence,Torque,Center velocity
1,0.02800438274465165,0.21147569783988968,0.2209541107135444,0.8397650123687362,0.9169094293328666,0.38486311186434613,0.9186640265335907,0.2637425860491513,0.05046175395855474,0.3601820128347767
2,0.01763086774428668,0.2549016495214986,0.20137254205504002,0.8578014691923508,0.9552917238586351,0.38486311186434613,0.9186640265335907,0.24715825897638327,0.05046175395855474,0.3601820128347767
3,0.009741826236331885,0.29851735380874095,0.17108134538136544,0.8743206230363099,0.9687344163577114,0.3869109582300545,0.9075004871013432,0.23368974924045477,0.28751923146463126,0.32901154404970523
4,0.00507646171433832,0.3363311756827605,0.1440841775678531,0.8867488207923474,0.96678712335056,0.35015667081230206,0.8950372018619962,0.22083010046225807,0.2959249486872952,0.2972575327784996
5,0.002210940769824288,0.3689018601770382,0.1225267902346216,0.8964858192902102,0.958747404894075,0.304941616035455,0.8857415520814313,0.20878797290184978,0.3327488766794426,0.2508012257325801
6,0.0010771833140815327,0.3953631192840438,0.1048586078101637,0.9062449406933859,0.9482982381578198,0.2625385428333246,0.8792231233737897,0.19694393725867607,0.14367386580225405,0.2248117255187764
7,0.0006642933931676239,0.41899445220971165,0.09301640508804929,0.914572646250237,0.9368674814124434,0.2414641037106423,0.8752251401697146,0.18534016318121294,0.21733618482977723,0.20784908778580846
8,0.0004931484139855556,0.4392123265570113,0.08636636815710372,0.9227552248777967,0.928230764577807,0.21208242871858504,0.8741657440098072,0.17378461700127074,0.14349380926230826,0.18890204501570768
9,0.0,0.4566436281978385,0.08656267342657593,0.9320828173586913,0.9278801848977116,0.20156046715804526,0.8763974842749438,0.162027461360229,0.11389814698536643,0.1931020777193902
10,0.0003532841284571755,0.473633088218692,0.09303776355459786,0.9419792735993671,0.9265843201250588,0.2379684649042989,0.8815875812686585,0.1498645116489635,0.25148830540137324,0.23063087054194104
11,0.0018298955127034053,0.4909694714933489,0.10920396988912497,0.9542240766587518,0.9230239240259015,0.29060818727744697,0.8903640616797202,0.13720580683210315,0.19825538252192473,0.2648484295875489
12,0.0048357064663126954,0.509206478574895,0.12729868901093075,0.9667960286761773,0.9128164729188739,0.32845957282004623,0.9018508756224578,0.12413164506543353,0.19749125005349846,0.2875033507853265
13,0.007967793316693646,0.5287686063778213,0.14188699377828679,0.976756919966888,0.9002161243056497,0.3533594852656677,0.9132245078842222,0.11076866026809631,0.25391268097202446,0.30293288457406226
14,0.010199489116309425,0.5521802121955647,0.153409895923563,0.9816358043017129,0.8891172883882156,0.3774036234234847,0.9225369608448001,0.0976415222749035,0.04390793514188887,0.3233691963991975
15,0.011947042954670275,0.5753911633142984,0.16713366435263785,0.9799489348541186,0.8822502681449835,0.37438401189371767,0.9308984243094693,0.08488888485330769,0.5628171491133902,0.3224704192692073
16,0.009496744724971069,0.6067757230680014,0.15925567611412572,0.9664449829043262,0.8872117704923301,0.41397044796743726,0.9332071749613773,0.07309363748809644,0.4085948049142313,0.35546049977053357
17,0.006838617850499354,0.6407819767098321,0.1440800040743896,0.9432780965041466,0.8904042254491751,0.468075140467762,0.9269795480595714,0.06232487712308172,0.2920687172827319,0.38947599156980844
18,0.005477531905068185,0.6757066442841052,0.13119331379583124,0.9211489249426137,0.8931447542775587,0.5178098218068333,0.9191633681996869,0.05245601891210415,0.08718189261186457,0.43523665318269045
19,0.0061516773246782855,0.710894255237672,0.11533632366932121,0.8992398176148286,0.8888629934632922,0.5392702032984442,0.9114617045288776,0.043540654282718645,0.34863787277378,0.44288767934520024
20,0.009554924308127145,0.7425799900089224,0.0937367387291021,0.880629851419358,0.8735574187238789,0.5117555776499637,0.902840887941873,0.03545777247640635,0.24791130724913493,0.41739084472095134
21,0.01665193533958508,0.7689751995161273,0.07409522095295079,0.8658236107539657,0.8460571675560676,0.5065345521217932,0.895413555959352,0.028226727881271767,0.10243046395660646,0.37462126446556476
22,0.02500764703963785,0.7934588687924634,0.05009561288700388,0.8475618590093932,0.819136517124936,0.5006959687412855,0.8874377627761751,0.021936711727958844,0.20375239561609207,0.3867440968449724
23,0.034965613498015496,0.8142371024504391,0.027750011269033318,0.8256900701431331,0.7913749965893744,0.4885817691829509,0.8771720809258353,0.016632766081126075,0.17124512514217258,0.38225514594854165
24,0.047371638139531484,0.8306510740699473,0.0135478585122752,0.8057062764671623,0.757459806842441,0.48293619161074275,0.8693832449557897,0.01213242801434189,0.6924636815492441,0.3664688131671351
25,0.05929645822832982,0.8432089235991437,0.0014522057640341626,0.7878196773256935,0.7253879104745102,0.4098455347810605,0.8640294995754014,0.008369423928279173,0.2699638091992542,0.3297182392995113
26,0.07128050357215017,0.8535398377094479,0.006071035530078292,0.7714990682848883,0.6945045311681275,0.3829408926407517,0.8595666476537575,0.005290374063561936,0.12731880330962483,0.3193581022994477
27,0.08366068421286343,0.8621011280447785,0.008420617927113542,0.7558707257859493,0.6646200130971058,0.3773949889191519,0.8564955408353809,0.002918106528504698,0.09951073240139267,0.335112886858077
28,0.09632333919077218,0.8695560590185228,0.0022374268419226924,0.7415644428474636,0.6370493793733648,0.3906890318165466,0.855383684737744,0.001213758103338981,0.10285410844572211,0.3471422005485672
29,0.1088576097799441,0.8765419104727084,0.01023841038780099,0.7283614187611376,0.6152398331399513,0.4113959997946091,0.8559395006897337,0.00021089099648424373,0.23049502240480893,0.38662537757051413
30,0.12295242331551595,0.8829606188818202,0.026151053388686736,0.7145122383948915,0.591104643151337,0.45091674014823574,0.8571161891367378,0.0,0.2147613823197024,0.42861218565803105
31,0.13999234579621514,0.8878395480520134,0.03681087330878882,0.6993845106236302,0.5585592746820284,0.49698650062160143,0.856844647105472,0.0006525081725807924,0.2881240802394704,0.47677681649933484
32,0.15985149635806334,0.8917520293694051,0.029688740617234078,0.6800963105956933,0.5166829149070885,0.5680625345051056,0.8500344280108728,0.0023539650630422697,0.9794677237850976,0.5646579290978107
33,0.18354171257680726,0.8941012403957402,0.01649906604397538,0.6536854769241353,0.47287134781564455,0.7243515060226781,0.8340174348023517,0.005363705825847822,0.3592915874568681,0.7169472037025724
34,0.2112844752656805,0.890764768890989,0.02012660613179625,0.616220177639426,0.41344818416501405,0.821292100335836,0.8065347139245778,0.00988607100115476,0.2583461411929972,0.8008036237471368
35,0.2432534495279074,0.8798803602100742,0.08335614629475412,0.5719093359382165,0.3396252259263363,0.9056938631767024,0.7640761251710712,0.015954675512470658,0.4827590133839617,0.8819534120535165
36,0.2774304206189522,0.8609773460843233,0.1570053133309248,0.5301047328924736,0.25396453464560625,0.8729390826192082,0.7111980531669546,0.023403226480734556,0.5180508365998371,0.8659067861982144
37,0.3135630408403193,0.8354067654631288,0.231683444794005,0.49269244978483356,0.16148000750910124,0.8180503569497272,0.6567926316427891,0.031987144415461966,0.7240742005526694,0.8157252683700319
38,0.34846447284827126,0.8070340768067895,0.3048836496871809,0.45475323098204595,0.07343198408437253,0.7329915765142233,0.6037209517911523,0.04156624468339442,0.3902000688424036,0.7481401728533323
39,0.38260423570686647,0.7768002594581238,0.37021476098176015,0.41614791210681407,0.07240642397051726,0.6755689145929611,0.5528532304658947,0.05201139174479918,0.353294356701648,0.7021772711392354
40,0.4152988243024685,0.7454092131647694,0.42540424539080346,0.37918049807709775,0.12126323611452618,0.6208333805464423,0.5067498544848418,0.06320808130496923,0.37319029027391726,0.6626047763280011
41,0.4439375367806279,0.7151513422376196,0.4682804133155849,0.34386277437620727,0.1611058820158855,0.5603755821598116,0.4662531361147095,0.07509862386611517,0.2732652385227298,0.6296451452359361
42,0.46878494881790217,0.685990894255552,0.5008799295663047,0.31011839450733353,0.19068940869680845,0.5051588001719254,0.4319319731507442,0.08762082187070011,0.09790098601345557,0.5867041425534278
43,0.4917877939434283,0.6552914431335813,0.5289102069733117,0.2727818796482324,0.21041876418097297,0.5190263035696768,0.40179947784203773,0.10078680166510097,0.04080941589967889,0.6035293371381525
44,0.5127635238946705,0.6256498157005901,0.5528938953334226,0.23973130464618841,0.22320931105097838,0.5112632759867394,0.37381620939052923,0.11455798197201572,0.033098675933898036,0.5987061200934811
45,0.5306317480997815,0.5964413284381601,0.5710587895760902,0.20616528442824295,0.22722273356835268,0.5118870356321001,0.3487942747075715,0.12893867704987005,0.044426317834161164,0.6013680102832807
46,0.5514311052151354,0.5636544853068299,0.5933981970499157,0.20281448230586055,0.24024345573065942,0.5204786275218481,0.3248058317767514,0.1439457177002901,0.03031103919904054,0.6133865048211834
47,0.5741608185449725,0.5283850463264541,0.6199584605284717,0.21058118531284828,0.25995208201939884,0.5446607984976664,0.29925914479326676,0.15965481822051786,0.26523469037879244,0.6403424808662371
48,0.5953099128395505,0.49180630155342575,0.6525236823713645,0.2177601512410572,0.26653777649516025,0.6274314647001026,0.2703531602069672,0.17626716028932446,0.08850225238178537,0.7404660299218875
49,0.6195609286536471,0.4531829856211838,0.6955773654027393,0.22347849455079613,0.27121513142932513,0.6910846631059914,0.23632134494351484,0.19391412108633158,0.12339111114980875,0.8135983097619466
50,0.6488150069168789,0.41324424183499525,0.7462933558181155,0.22749618144890751,0.3230163580796802,0.732211487805175,0.19739396069189544,0.21259398866041074,0.43743410645630987,0.8319645425143866
51,0.680259660357571,0.3755936125953495,0.7886238347513946,0.23132459500972274,0.3898551116670332,0.6677659429655077,0.1604939753391141,0.23218193958497435,0.6345424299901401,0.7513571867578926
52,0.708914069981509,0.3434281759319167,0.8195148625240825,0.23548866034825405,0.4542638893932875,0.539979840627387,0.1314814574586181,0.25244386917735384,0.2921390913121776,0.6178558309690931
53,0.7356189398456585,0.3168969801393424,0.8455672061827518,0.24092782071526156,0.5112916659866467,0.48456364169712707,0.1075948743480792,0.27321012594995514,0.42331645451317,0.5631707408744138
54,0.7577039992853204,0.297983411759637,0.8641371747909966,0.24259181486613796,0.5595495072667906,0.4017915432872658,0.08862260359462973,0.294331532826951,0.13666726353633457,0.48166757346557937
55,0.7770487751300872,0.2837432399899897,0.881195318997812,0.24119052520118778,0.5948378070760459,0.36458649452456354,0.07303675980559485,0.31567277607513206,0.17446275425287497,0.44163833589728924
56,0.7934242134864923,0.274886624507803,0.8960649663245328,0.2492867825316704,0.6202239990942561,0.32963624125033186,0.05801259673727997,0.3371685440596515,0.25458768243860236,0.42374982949658135
57,0.8045429118805707,0.2713637665636595,0.9058215742746193,0.2688709927307975,0.6368341743216562,0.2763167908647279,0.046684959606576544,0.35879405200784886,0.021146666359392764,0.3841430672893498
58,0.8163270537810133,0.2680789804159907,0.915159397649832,0.28517839696742264,0.6536663125484051,0.2750602738180711,0.03829550642403229,0.38048910578043915,0.017663838956201928,0.38282232769646035
59,0.8305905669812267,0.26428702636622453,0.9234814569236147,0.3004582165347142,0.6772396646539504,0.2923994076756404,0.030412264118471668,0.4022025760170303,0.032797833887288005,0.40506056096986826
60,0.8464770973124993,0.2602949909788858,0.9308955453117581,0.3146538440530996,0.7048136064384055,0.3006051083953543,0.023248561296546257,0.42392442945464953,0.039018121716593336,0.40871356260813674
61,0.8627572057239649,0.25660343608232977,0.9368296864793156,0.3278171687771064,0.7345202326044676,0.3038778916814796,0.017575720558772462,0.44566627931934794,0.019590778510470072,0.41861952294225896
62,0.880141137767669,0.25122006737444186,0.9420261957252203,0.34141349696638673,0.7637333497106985,0.3101163878880693,0.013381411988998847,0.46737568892284514,0.05405161501403398,0.4198043742687384
63,0.89477393028001,0.2469192509670214,0.946984532574917,0.35870381030445303,0.7845071695096015,0.30061888772618506,0.010738028934915305,0.48907523778615947,0.021875251197899813,0.41499330434472376
64,0.9095930263858157,0.24567504662609344,0.9541157298676597,0.3780924683248563,0.8007335047521599,0.32181094887185463,0.01019989161497132,0.5107686999336453,0.19932704761010006,0.421190400817482
65,0.9224934050445452,0.2436463078555753,0.9587641328950787,0.3965827778815612,0.8147937364911254,0.2722599929890674,0.011359587230781405,0.5323746857772679,0.2507713647623618,0.3606510147110586
66,0.9313360408375361,0.24228019135242307,0.9624309906905512,0.41088975810886424,0.8203425836614456,0.20294649350765578,0.013509004290976652,0.5537419816527839,0.2320788168671437,0.2855125387853147
67,0.9356820643096634,0.24327942218977275,0.9656357804404786,0.4243929183067803,0.8162578822256612,0.14089818191469192,0.016093546679919336,0.5747149143181054,0.07166354148310929,0.20771006738208178
68,0.93802743687093,0.24608907669950764,0.9703373624615326,0.4378015729971757,0.8058126806150185,0.12501024547092823,0.019245408141219274,0.5952124812267112,0.09729622713998078,0.18952010855385387
69,0.9387570647630447,0.2499317246879255,0.9761035063537438,0.4525412377321128,0.7917953021346521,0.10141058532798357,0.022837962495632375,0.6151609073552049,0.23827565164715006,0.1515351834353917
70,0.9376952428905347,0.25396122658353676,0.9790958067441619,0.4671351602662536,0.7825638707837559,0.054117081172565584,0.027504971524555173,0.6344791991738751,0.05807107835078835,0.06214604584076937
71,0.9369710196857409,0.25649992901001856,0.9792118336393648,0.4824407901834642,0.7826197995246169,0.04866461099666305,0.03348214490281478,0.6530711158852697,0.014340024379466191,0.0
72,0.936444479669792,0.2582061080220749,0.9770138189280231,0.497162412055042,0.7896591894651623,0.061888823652177766,0.04004549437493557,0.6708678508070167,0.01586990725453389,0.04490840370477723
73,0.9370947302367721,0.2592066988292745,0.9734861027607824,0.5101763498863435,0.8040419060476447,0.08308892844925382,0.04672872220857864,0.6878457315064299,0.02233279853846228,0.07754374478278511
74,0.9367471034341485,0.261666419726498,0.971497329260191,0.518388479594257,0.8129171583588441,0.09304024201255037,0.05289423724558519,0.7039994120650557,0.023906959951641448,0.09962711558951907
75,0.931388984773075,0.2701966707537635,0.9750322971083819,0.5223601250502069,0.7985652865584457,0.09106958756321148,0.058548208898444386,0.7194009411567821,0.042374458266876865,0.08802627211785127
76,0.9231359333415293,0.28059955070435505,0.9810884327002578,0.523422082164472,0.771213245540741,0.09854725701401644,0.06361612962134872,0.7341075514410418,0.04757429750800552,0.07941026321777991
77,0.9117984772536978,0.29243299741448814,0.9869471110629275,0.5226407836092273,0.7367712987627383,0.10767928209396758,0.06816858436374056,0.748186598051139,0.07272967138890397,0.056748612145753774
78,0.8993750212087682,0.30397017090374645,0.9939014730941658,0.5219175886111551,0.6960421444162146,0.10738895179840151,0.07240884530157943,0.7617173017886765,0.0922527840890943,0.03954519819337213
79,0.8880898890314776,0.31239026803670994,0.9981799648547816,0.5228349849713005,0.663078962794722,0.08637321451937605,0.07662214869744134,0.7747620343423498,0.09877692382192611,0.03810688843773796
80,0.8808836324454722,0.3149455086137908,0.9990856695901238,0.5255678829359174,0.6464941348811697,0.05932904367656564,0.08135707453206131,0.7873750155831578,0.0706866681080446,0.03273283846302528
81,0.8767377798158053,0.3134611878211121,0.9968520763191202,0.5306951484176813,0.6439236505344474,0.04889919864675374,0.086406741887424,0.7995945179679277,0.03548605865626543,0.04893244127709051
82,0.8739462868615913,0.30885048638700363,0.9915959673204059,0.5386441844209224,0.6511854925195731,0.05098280982178199,0.09166092890925952,0.8114201934787075,0.023330909331219504,0.07545459232211206
83,0.8714260828866871,0.3028788905046153,0.9879710333054266,0.5490066453032196,0.6545329487490331,0.0434207675960999,0.09608815275979557,0.822909689618226,0.06476611194082398,0.05948468258964475
84,0.8713675807761634,0.2945774210630104,0.9842928447584692,0.559245089247429,0.6639542786921884,0.03370386602270176,0.09898271364125728,0.8340491996103074,0.018495320703042863,0.04537165399779486
85,0.8726805770968332,0.2837815282370724,0.980576811501553,0.5721085520782742,0.6770613655802169,0.03800663140276272,0.10069760989544412,0.8448739396294749,0.01553655550631446,0.036702454404517165
86,0.8708947503625043,0.2753775299209299,0.9794111037888089,0.5871495276042444,0.6768557469938615,0.03421352886242886,0.10119373057880701,0.8553853731849016,0.07628398978200232,0.026645020773990745
87,0.8686193353560031,0.2690032990628748,0.9793869315189748,0.6019838061393323,0.6726738195203354,0.020633770295869047,0.10086017084670464,0.8655882813837592,0.02281124394934689,0.011310284887543947
88,0.8664774654853551,0.2625798384420472,0.9791529892699878,0.6151908013699695,0.6688239937981826,0.025024981486639484,0.10041783901935118,0.8754748682784679,0.08201145031616944,0.016448585944572464
89,0.8614357027552646,0.2600122358718481,0.9787902541457915,0.625301440506287,0.6585351564548764,0.017379744106670997,0.10057377289534973,0.8850757334282422,0.12429729482237872,0.015190949844833353
90,0.8574496542602106,0.2591270807349052,0.9789663340238636,0.6345555014550247,0.6489021773622595,0.004090135507258326,0.10101936647111642,0.8943828269857185,0.013202910223423129,0.026617417756949653
91,0.8535959410299634,0.2605942293151408,0.9773191449113638,0.6418892443750757,0.6435836576355082,0.01581834996076123,0.10201203195417599,0.9033841633382201,0.012978710492576217,0.056302553428704646
92,0.8510309107230477,0.26185100332204425,0.9743182331498174,0.6436311848169745,0.643637140702976,0.02952769088512361,0.10357596383972474,0.9120361595769285,0.06886055817045197,0.07997221334885353
93,0.8485719513720887,0.26346736215886624,0.968910443157895,0.6405474278748566,0.6487315816218,0.06421842094050403,0.10526042601035042,0.9203016503018663,0.04054770303076641,0.12486345164384244
94,0.8472080799834801,0.26625794784777296,0.9644566269026393,0.6329172255777998,0.6543075687153015,0.06010183115902209,0.1070976869395441,0.9281753126804628,0.06791085949841864,0.12698567065749286
95,0.8467289464807298,0.2699504606877449,0.9618565971286211,0.6222812621031975,0.6578049897010826,0.05143527501203361,0.10822320637243993,0.9356754593686072,0.016308941066914055,0.11691475064509561
96,0.8433010414225962,0.2763448464413362,0.9593268935521512,0.6086633115059426,0.6528510238115093,0.06540516584534786,0.10911562096919435,0.9428033869998372,0.020364780665762285,0.12545183749477296
97,0.8373617578964655,0.28501850410739543,0.9565937652173594,0.5933202455111962,0.6415217746637791,0.07444172805576096,0.11087507542755931,0.9495933661153033,0.015099458692329181,0.12285354357878929
98,0.8282310380527865,0.2963357543310569,0.9535586345863294,0.5738424796147225,0.6211909410405132,0.09593694485407805,0.11357217091922975,0.9560559210821215,0.05235802138278702,0.12571130740736092
99,0.8171372698562315,0.3108362834510406,0.9534811322461741,0.5533145617355592,0.5869006550817311,0.1040945935534723,0.11583531436140275,0.9622246286217598,0.09281908445295606,0.08973844076901924
100,0.8005130311002929,0.3303159974476881,0.950869998335701,0.5345444748098769,0.5392887030133011,0.15321157744728733,0.11845164032156336,0.9680818763521143,0.01600484286192316,0.12577897863724388
