Frame,Center of Mass distance,Symmetry,Grounding,Arm fold,Leg fold,Kinetic Energy,Potential energy,Bone length coherence,Torque,Center velocity
1,0.29186498485244594,0.9742443629083585,0.0,0.4458932466740855,0.2620624845603946,0.03303143302464938,0.5016704334264652,0.4389060941373078,0.05220465942243893,0.06616467330099461
2,0.2899682913812464,0.9737934666033073,0.0012251660551692964,0.45163926987851627,0.2630109047857666,0.03303143302464938,0.5016704334264652,0.43714688837941773,0.05220465942243893,0.06616467330099461
3,0.28657668581966383,0.9733303421479836,0.002687823475517272,0.45929279584246185,0.26575626545718767,0.04485372956484455,0.5055567338085561,0.43511076692104,0.09272592147995033,0.08070915640681589
4,0.2815323507751583,0.972935914912511,0.004359445332092891,0.4659098176351994,0.27004009061411016,0.06152271823657573,0.5098130073231943,0.4327611949473607,0.06639519502064363,0.09641168411409055
5,0.2744386393590552,0.9730140679633442,0.006024637705775874,0.47314688970171537,0.27672366970323137,0.0739359213811697,0.5138337071583142,0.4303608778686588,0.06595978066897673,0.10083487321350597
6,0.26419833549000976,0.9734448390641738,0.0083314425344147,0.48129450236482635,0.2877584905228012,0.09473235304997783,0.5184231981133832,0.4274314437348072,0.09009895695869603,0.11670688139727249
7,0.2505056454729556,0.9746708655157867,0.011077842968635598,0.49086872713299584,0.3035950109900626,0.11674217727472506,0.5241291403376799,0.4241386424698415,0.10495977823136814,0.11665714575172506
8,0.23361789578910236,0.9768910940882867,0.012344032869989901,0.49807789736060387,0.32404905486780644,0.1449428570640153,0.5293113849909379,0.4205438643551309,0.04597159376044439,0.12876361048472357
9,0.21705039465812026,0.9792799277934161,0.013038498171209924,0.5068286795378589,0.34517377737904803,0.14840346610875993,0.5335302869175346,0.4167406022590243,0.12067253829101765,0.1284108948553594
10,0.20240487785232028,0.9805438414631196,0.014215168447162639,0.5125135431766257,0.36349893144985557,0.16580025367105738,0.538388215608544,0.4126027382408129,0.04847189243562008,0.19732856637925147
11,0.19024368947108597,0.981037881383112,0.014325437199879857,0.5128472461526139,0.3780341402471546,0.16940539601357432,0.5437304420669079,0.4081796780797358,0.16537334605599754,0.23549515423110243
12,0.18037253105294965,0.9810951125745822,0.016041022986565224,0.511800063137705,0.3903161831648555,0.16599933273952655,0.55017496727954,0.4033084401819155,0.12162267231584542,0.26005264735017425
13,0.17201758055375396,0.9792200298394297,0.018943478830802003,0.5104331772500802,0.39984144997472193,0.20580644590879557,0.5597365118488599,0.39759002322967635,0.05024680569566372,0.3260994442689777
14,0.16483367201370847,0.9764273009054687,0.022906281248365665,0.5095608624740809,0.40760325629932703,0.22569742713353394,0.5720023188514363,0.3911248605150756,0.0637795860971779,0.3583759282332879
15,0.15804268454721568,0.9726731001749925,0.02768732587615756,0.5092793036522032,0.41514638426438266,0.25824451514670166,0.5862576286207623,0.3838519162146383,0.19979895831553612,0.408530999981461
16,0.14984269499258474,0.9677061481032891,0.03250342367014728,0.5071198469968016,0.4249489143615995,0.30389386588424566,0.6016883422816117,0.37573850807376885,0.21612225542013544,0.47177027781533565
17,0.13914506202914462,0.9618766694231827,0.03653830496048909,0.5027592770705779,0.4391391996838095,0.34597273577229715,0.6169320756959952,0.3668681067682891,0.05953495418914442,0.5267459054726521
18,0.127062318178828,0.9561361809623579,0.03848901007012074,0.49392331633345765,0.4562377925477339,0.368711662004787,0.6300202593283374,0.3573554942627005,0.38834402277180685,0.5707657620260158
19,0.11339620361131178,0.9486924659881205,0.03846613234701248,0.47801198182724275,0.4746231387633882,0.43011005172897254,0.6395567874982101,0.3473392535495477,0.3266218370839233,0.6758157958789698
20,0.09601434644955313,0.941084710425435,0.033162136676932644,0.4541909882538197,0.49843259768839016,0.4532534586317714,0.643135189185235,0.3369102254361541,0.3954851196462191,0.696710710169936
21,0.0741119629653032,0.9334220329832055,0.02281045074218309,0.42031027014167904,0.5297666776212896,0.4779358640167045,0.6380623272483725,0.32632330139898913,0.06448404534719164,0.7047490138728872
22,0.05068370075448043,0.9243519649639073,0.010428140601224493,0.3856720943194587,0.565237020410991,0.4828757121688707,0.6263578465197216,0.3156704526387792,0.19523611821702194,0.6845069581350377
23,0.026140647159180234,0.9144751565027869,0.003386483546158491,0.3521660780239969,0.6038308061099089,0.4577698463750978,0.6117448831696138,0.3051028712298873,0.37670715641645924,0.6302662344155875
24,0.0,0.9039421578019808,0.01871330334324486,0.3223739144811366,0.6406960016189016,0.40486221208804485,0.5956629133105404,0.2946494128422545,0.04294247553789322,0.5262560708479792
25,0.015497321139291932,0.8913936702918865,0.03648339530392088,0.2912158535056054,0.6700859114868386,0.3876348545856444,0.5769450956695507,0.28442323754137994,0.4139623193124481,0.4842130476544755
26,0.010574502310694138,0.8783201179637987,0.05305586186818708,0.26060815316231817,0.694554299231033,0.33474225188732065,0.5575741255438833,0.2744555380649072,0.051110511636443486,0.42144849131410617
27,0.006724216728183818,0.8631650080544455,0.069370119151041,0.23714530621437901,0.7119602945401956,0.3369302898473798,0.5391046864205631,0.26468757492647604,0.694213028991159,0.44175025263851186
28,0.004934179028009919,0.8482098136220111,0.0815384960515169,0.2205009601049878,0.7223518554130443,0.2600048046687758,0.5233973971797913,0.2550841574128446,0.17531785408802925,0.342276041094449
29,0.004436267103934934,0.832129859044878,0.09406371549475169,0.21114969874271877,0.7305383228122845,0.2807749736726559,0.5094455907977388,0.24564220226794878,0.06874567270219939,0.3748583025544766
30,0.004995263856495346,0.8157674874613378,0.10680376705763078,0.20937113131612403,0.7376928582237661,0.28807192270282267,0.4931365426665053,0.23637748198704106,0.08219478006909367,0.38543124050744076
31,0.006127057073516323,0.7990967371764569,0.11914314323418573,0.21986357809561388,0.7450701379762757,0.2916735048610423,0.47595369695971,0.22723911264499055,0.04463223601457353,0.3871452966116718
32,0.008377801600657566,0.7837434319805355,0.13262281004951051,0.2304835020370982,0.7513471719121252,0.27293897673887757,0.4578418766887464,0.218334101567687,0.27476247758019506,0.36530883974130635
33,0.010879137888526768,0.7700084721685488,0.1451050331061777,0.23865257331636933,0.757653987035584,0.23417351426945812,0.4393529233862688,0.20969849932905799,0.33858645756984035,0.30674753352176826
34,0.0135402772806906,0.7558905354570961,0.15547960924846835,0.24824027271668253,0.7633540382785086,0.20853258106642308,0.4229628769244308,0.20127187859029672,0.13254024399794456,0.26503812457054216
35,0.015080786821327349,0.7418770713326414,0.16601971648527108,0.2593886962267861,0.7739247708914067,0.20332917795777325,0.40801018284106894,0.1930356955485786,0.04839984026282401,0.24794811851882373
36,0.015411321949671913,0.7275118584134812,0.1789160481779565,0.2683523526699241,0.7916920489164434,0.2004236971447679,0.39180686311591856,0.1850201510771615,0.12846094001859953,0.1944202621873097
37,0.016512169070162487,0.7119310253725344,0.19508627255958214,0.27555933784504416,0.816567191628962,0.22916517901151812,0.3725578611236766,0.17721936678582212,0.06851041055892469,0.19254924672817167
38,0.02092071746774554,0.6948900363909544,0.2125806083685435,0.2833878972951376,0.8411886302184458,0.2466723924455934,0.3506896839722132,0.169615657848271,0.05282847578010835,0.19814507419317262
39,0.029132884826502396,0.6778854847170753,0.23011873956777187,0.2883303218282114,0.8592322964594749,0.24290203319716727,0.3277813949843715,0.16222596102876075,0.04826439565250581,0.22479986382160258
40,0.03903350410411063,0.6606584921331364,0.24607378226563464,0.286129465497372,0.8705442504711425,0.2340868039693201,0.305881227722488,0.15502299486350948,0.18716122816587577,0.2532029845664698
41,0.04759229301986367,0.6444600251438786,0.2582174399891642,0.28507676792761666,0.8775088626691133,0.21757357003563696,0.2875440523023388,0.14796536114986428,0.0814906688399631,0.2695387789931963
42,0.055279757313181,0.6260655124016945,0.2686363733211977,0.28792665198090894,0.8833489211597503,0.2275024974521519,0.2723763920105693,0.1410171022127999,0.057759268312830805,0.2959780911441562
43,0.062451758682392784,0.6053029924350406,0.27826346901837773,0.2932813732979594,0.889367691821307,0.24323428876626638,0.25893690865989655,0.13414679121418185,0.2836936710686622,0.31934045549350487
44,0.07226889505701073,0.5804029138491538,0.2900923442532559,0.299771858833939,0.8949751455655927,0.29282436436028875,0.2442274442873402,0.12733117146168332,0.11927985887155529,0.3706385026061165
45,0.08208237956417688,0.5539120021648907,0.30201685024339175,0.3044741454117944,0.9015921993304562,0.31275452782048907,0.2272959163933625,0.12059329337423849,0.39214361099403816,0.4064888845371402
46,0.09344238856868088,0.5257279384411047,0.3161445589965651,0.30630403776452,0.9104967806792875,0.3560947651662311,0.20915226546076737,0.11396198569802574,0.4960029143719086,0.4605047171948068
47,0.10432824099105137,0.4980995405976078,0.33015423992203524,0.3012034496661793,0.9191277481328035,0.41153601120602007,0.19014267854347794,0.10748390609792434,0.4266551559378648,0.5437192786565169
48,0.11484519825857599,0.46919535910528287,0.3444622488537245,0.2897800719071788,0.928000361399822,0.4623523189183311,0.17239312508033777,0.10118740678595751,0.51444301726328,0.5792552235065958
49,0.12900250640288818,0.43893601082183437,0.3620423776848963,0.2634553587548269,0.9369985090672808,0.5223460092843373,0.1555068744960946,0.09513808828459162,0.35384598731614164,0.5699259133441794
50,0.14546391374610232,0.40842721332147935,0.38035736519961666,0.22649700833965855,0.9466907871136913,0.5724077735711551,0.13824159085158405,0.08939789860417857,0.0875334211086881,0.605132253978591
51,0.1619300251603367,0.3762711902240444,0.39759422206648454,0.19201394112877385,0.9596199936540234,0.5927727826685935,0.12149526617493982,0.08396496538384102,0.3783165909240469,0.6409547216229865
52,0.18036341061363576,0.34443363622199785,0.4141557959631317,0.16220239496900443,0.9734968120012567,0.5474374432870236,0.10657845501660605,0.07883132082016683,0.6109541511711004,0.5653369688286529
53,0.20084137578176509,0.31377752596664077,0.4291388631452515,0.1362443009940023,0.9850485082922336,0.46639874422655,0.09351523157539975,0.07396187589470887,0.10442820933239079,0.46387799009106795
54,0.2248161469545746,0.28468617413067876,0.4437268229980766,0.10821931734774859,0.9909205790131067,0.4508755184225378,0.0812444329153305,0.06935265393075907,0.2826245223030542,0.4239053725509414
55,0.24706298935201632,0.2587176500880974,0.4557124028334762,0.08027181136718617,0.9919473626125689,0.40665855845389975,0.0704997905779565,0.06499517629095623,0.7993831827841927,0.41077045793221306
56,0.26091515123403036,0.2373548921842738,0.4628303272885252,0.057157855397895446,0.9916563622028268,0.2739580911943862,0.06428843594934502,0.060850034647011046,0.08031298850190988,0.29618914586289585
57,0.27170091434332705,0.2174583505490738,0.4683105438487032,0.04249484942259201,0.990668733937618,0.25951825509273435,0.060728145508154405,0.056887601164486185,0.04008077961232885,0.30965554704849246
58,0.28139686398999675,0.19808133296444413,0.4731836174728897,0.03711175888811075,0.9901276769073845,0.25769400134837755,0.0559162552546477,0.05307129824892223,0.025398215651379133,0.31946155730559367
59,0.28961997917210197,0.1801980537568305,0.4774872012104133,0.04371420660112871,0.9911920715186393,0.2598908865947215,0.04991263253498227,0.04936253346563076,0.14354985357223346,0.3300838714702858
60,0.29623829313764916,0.16548489047196815,0.48110314238924284,0.05866982515530987,0.9921781360658627,0.2333082814462489,0.044238095813646475,0.0457567008064531,0.028060015368467275,0.29731515589069535
61,0.3057505889349951,0.15176754541590878,0.485838088248916,0.07023202962135021,0.99482394009422,0.22855838980955392,0.03865789125865615,0.04227602568702242,0.2738937538458424,0.26364579516372066
62,0.31301554361717676,0.14057905379394675,0.48945889835653805,0.08118182645488985,0.9967011098328379,0.18218247108382957,0.033725790198028634,0.038914617284060725,0.05441900111098912,0.22454084676315594
63,0.31919106789506646,0.13077733185434587,0.4923774341502228,0.09065330057454432,0.9981985584735142,0.17829179442588666,0.030255394140608384,0.03565894252037462,0.1239380830639996,0.22866611763991684
64,0.3245921679885681,0.12247215800078842,0.4948924231380393,0.10086345950221079,0.9993609432248253,0.16185341710286083,0.027939536082217862,0.03249717304322635,0.04192012424319392,0.21515329363088695
65,0.33161191374955984,0.11363734453365883,0.49814214596507617,0.10901948677203317,0.9999999718663876,0.15703992254551,0.026010003487987297,0.029427525710788997,0.07243736740055966,0.19793791871072833
66,0.3453878468943656,0.10160753037457655,0.5041367461255323,0.11997704600763352,0.9971994925508201,0.15756569349305444,0.022209487375349488,0.026441359471731964,0.058741778359825025,0.14944318247334248
67,0.3651092297460195,0.08708352242570078,0.5114547710695201,0.13151206273597346,0.9862964970812326,0.18581841669997795,0.015924995987722776,0.023544025754687618,0.14324299992542877,0.1389510064359705
68,0.38532534052243445,0.07141864305552045,0.5176992596369264,0.14258960929057557,0.9723798596982134,0.22159113948738177,0.007947690695429733,0.020744948144717237,0.05017265738300046,0.1962790553178214
69,0.39972181931582146,0.05869985203705622,0.5210150750512133,0.1485431643048991,0.9583282529492447,0.22760340256373704,0.0017037950611498234,0.01807220959326097,0.10853401756652789,0.22562495748603922
70,0.4065299041507701,0.048738907029415884,0.521188358978495,0.1484866017308217,0.9477967105934259,0.24743230622646195,0.0,0.015529518858798422,0.09257220159101001,0.25955724369148503
71,0.4043809391395142,0.04173776199191055,0.517927200411012,0.14935018837066752,0.9408074967309955,0.27207151022372694,0.0025787601870203786,0.013112667996452738,0.1769787526081796,0.30791896169106375
72,0.3950043635242855,0.036051734749412194,0.5115314005180542,0.15651393958568943,0.9353182079886293,0.32792444168571505,0.008618583185987528,0.010823579340956705,0.08702060403755131,0.3991602353832272
73,0.3808549398102556,0.031949776479286374,0.5027935959381745,0.16599142200550832,0.9299969291767946,0.3589852246609486,0.017359285443218537,0.008667582974679032,0.14246704287671527,0.4541171378923522
74,0.36506942515726093,0.02770316916300583,0.4923576338398,0.1764540919292279,0.9230003277012002,0.40288070297299106,0.028537704807967558,0.006659814290794394,0.10570757740392737,0.5071292561965132
75,0.34891114906183174,0.023522579384329497,0.48030661060765606,0.18434065201289748,0.9122461843443852,0.43689053942970774,0.042175522340791666,0.004835816056839617,0.20392928841327904,0.532413491486831
76,0.32855234265458005,0.022065297209833024,0.46473492738782185,0.18701969679701633,0.9022740283519877,0.4978420589854028,0.059437310382802234,0.003240807401410961,0.2498430524890574,0.5753063121056327
77,0.30604839967909886,0.022444570592559287,0.4453035069854149,0.18438160104545714,0.8906709444118839,0.5826722845807104,0.08218265869048998,0.0019154567954464147,0.05897187841715792,0.6220557230460025
78,0.2928811977581571,0.021430531834597415,0.4275465486480459,0.16934124861450792,0.8736335846536628,0.5846442996122785,0.10918268581734014,0.0009163715862184074,0.2145973952532577,0.5164406282569524
79,0.28230668036678014,0.019005740835733878,0.40737245430715685,0.1395901586416558,0.8541538434176211,0.665334087577421,0.13877958287970524,0.00027964758907406383,0.02562537296394246,0.5139434606625296
80,0.2737608160835704,0.015731969692424113,0.3861115401531857,0.11178307922387422,0.834204998672197,0.679760701625966,0.17061773251636142,0.0,0.2116130875248898,0.5222651770587566
81,0.26979289036723886,0.012192550088511625,0.3672498842949633,0.09565219425686251,0.8110912698525311,0.5749150061073601,0.20184679336841754,2.7905357663520353e-05,0.20984400002022294,0.44074563447285287
82,0.27065279765937034,0.007379239800686899,0.3523722106945519,0.08549367140846521,0.7860110876455008,0.4629086005481555,0.22887868794006572,0.0003229483840735947,0.036380110742312656,0.3316264570493703
83,0.2752318102219238,0.003360563381025336,0.34022905234833445,0.06853651119962798,0.7631364166789855,0.451718601083784,0.2514489713871981,0.0008729667643002861,0.12030404449580147,0.27804468072796834
84,0.2803372126122374,0.004218640527031715,0.33042203100562256,0.046486179262499656,0.7447624745240989,0.4008809306824223,0.27092510925111496,0.001667635912101844,0.12510253023542728,0.23614959945740252
85,0.2816090284943831,0.008855202865193696,0.31977801583461485,0.03135844906687674,0.7303303893373224,0.3425589325555349,0.2886800273611017,0.0026789418452449697,0.09948556255368657,0.22519766713436537
86,0.2796992671015401,0.01603270399692942,0.3085714770904473,0.022446123132732303,0.719140883671117,0.30161297412603183,0.3058438433379213,0.0038797663551769974,0.006251841728923866,0.23795467330198428
87,0.27446231920976916,0.024291628328403616,0.2955677543068054,0.022559623850509164,0.7101938536587755,0.30280630223331106,0.3230285703473082,0.005233552609759792,0.009066365331443126,0.27739239174992225
88,0.26786750080099747,0.03303531650712382,0.28162060790523685,0.03070530636692159,0.7022091151484151,0.2961705193565271,0.34094813213737074,0.006699847094386747,0.026480825461386998,0.28802304324814654
89,0.2624660636850496,0.04317583555599518,0.26898603731509574,0.04388308199732825,0.6960705266917799,0.291066269307313,0.35887080492688145,0.008272766294823476,0.09674609426711117,0.2559994824598033
90,0.25863320258927136,0.05540296545527151,0.2593738979684116,0.055551222082331944,0.6937667707558101,0.26364478033329186,0.3750388726756656,0.009950513838091033,0.0711340747192259,0.2124611582202861
91,0.254613694901441,0.06764736581266402,0.2502886516236725,0.06653962603432317,0.6931151283404504,0.23354682884125422,0.38945383496951425,0.011717432729698073,0.07344536843821986,0.19600565650828208
92,0.2507225942230407,0.07815377529419394,0.24117821169354026,0.08132467249354751,0.6914805037697274,0.1982342933946591,0.4034653450571032,0.013546682940436865,0.058916561448378715,0.1712466735915567
93,0.24852318960628333,0.08859361405496174,0.23367469304699126,0.09558522455962361,0.6878419759904256,0.17622832243469908,0.41622468469102997,0.015422333287196907,0.01298112108105948,0.15712915620584447
94,0.24745961892625873,0.09870147419893668,0.22664723079202023,0.10979566931281148,0.6808681303158018,0.17324229488759146,0.4274305307200328,0.017319689592675463,0.03003564168765682,0.16060545167102164
95,0.24976991071582336,0.11133590430693176,0.22204912680028183,0.12358797016762657,0.667615449012132,0.1727944884538823,0.4368843711331389,0.019235737315142894,0.042339434333492076,0.13990114651738766
96,0.25740410704151584,0.1266738428212797,0.22053243051255353,0.13749114100219206,0.6447999241706169,0.18723772742991648,0.44311634046741477,0.021177514048768574,0.03897201457341749,0.10286741302236636
97,0.2669705819311403,0.1439290902681481,0.21912633381501173,0.1482288004412486,0.618470005132374,0.21782339883976948,0.447527655363349,0.023145820058275486,0.06746950297411557,0.1042698760094124
98,0.2735276374645131,0.16055331789410726,0.21406146184969935,0.16236440270432592,0.5960757694378499,0.22584501816955208,0.45378996790498083,0.025165480090232895,0.08680663933881036,0.17150347992756365
99,0.27599742248271364,0.17744097811539142,0.20498852515570223,0.17128483384044044,0.5796932289853721,0.252165795344197,0.46534305652587626,0.027277962521848265,0.05344061023132281,0.17743030240735397
