Frame,Center of Mass distance,Symmetry,Grounding,Arm fold,Leg fold,Kinetic Energy,Potential energy,Bone length coherence,Torque,Center velocity
1,0.895273088394764,0.8687334475283882,0.0021778084027414533,0.4013711596030957,0.10798126609688914,0.010125026340047884,0.004017512184243936,0.17549477596759758,0.07192178640280429,0.016340989314606983
2,0.8984963592919163,0.868659244620157,0.0010831345714413854,0.39656988899788265,0.10830260154991672,0.010125026340047884,0.004017512184243936,0.1746804975981832,0.07192178640280429,0.016340989314606983
3,0.9008222267264214,0.868180706225386,0.0008499345572495203,0.39020343446130074,0.10722926118165056,0.003768428882781126,0.0025347306287553813,0.17393966946672582,0.0450940346081714,0.006215026442250726
4,0.903420442544744,0.8677898369336757,0.00014644487651940133,0.3839309473487316,0.10706836853822174,0.004786902006578698,0.0013221955864560744,0.17321243726601238,0.0579119774410131,0.013205080511735925
5,0.9041127682979693,0.8674966850272849,0.0,0.3760586780150107,0.10573078058559664,0.0008274171167139599,0.0,0.17252669918633584,0.05505707051615068,0.009988904747245685
6,0.9045244719607296,0.8672162388178712,0.0002879304643917047,0.3688837452646729,0.10161331727010964,0.0,5.297609083704715e-05,0.17191427509931279,0.038506059356667253,0.0
7,0.9038645843726947,0.867481402857624,0.000658013327973078,0.36590381575077646,0.09642066580059219,0.004521319331499219,0.0010994100023771992,0.17121274547305929,0.04512515531812141,0.01648088244634911
8,0.9035658304820915,0.8677001211202019,0.0008985064137046885,0.36757872488159554,0.094803371090641,0.004994112028847603,0.0021654933676441253,0.17045246414283932,0.048004396214518574,0.02338836464565857
9,0.8988537571261376,0.8692025910182779,0.0014714501138722888,0.37320091303930564,0.09631795069480223,0.019938714952512215,0.003595282611435711,0.1696417781417212,0.09133096820466868,0.040988077762454174
10,0.8894119356768688,0.8716410255397905,0.003180524705337253,0.3787911440848583,0.09976678058511532,0.04880157544869005,0.007522358834765426,0.16864719138282008,0.03737355229929565,0.07954937487620832
11,0.875164345196945,0.8757035095356479,0.005277785184627789,0.38967260969742357,0.10755780416111009,0.06272355246137573,0.013644285969266715,0.16736887397157182,0.11646539156832895,0.09052279649732616
12,0.8527818667933548,0.8817813185936016,0.008318979809903291,0.4054458570260758,0.12088735477234196,0.10201416056124213,0.021414191984110115,0.16565312299303014,0.05533866889583002,0.1324199841054744
13,0.8240292581920962,0.888601812768971,0.011655122455074508,0.4212491184258419,0.14150403484782254,0.12063102323545959,0.03002812128964283,0.16371325730371578,0.10629503325965473,0.13139658152896952
14,0.7866289516106602,0.898407283551919,0.01387224861682822,0.4391321866636388,0.17627742695033471,0.16499085733157126,0.03760161456204237,0.16141544920712791,0.04140246611024556,0.15058046759275573
15,0.7432580956872961,0.9096086935074575,0.014937409818630518,0.45959454808566824,0.21765861722530402,0.19234704870650957,0.04250320826406268,0.15888840408122282,0.2813469948708803,0.12336079067944189
16,0.6877794915947177,0.9234784796656093,0.02197608281630719,0.4835161884045595,0.25899410066427336,0.25512842080895154,0.05468752346738354,0.15609453521310526,0.22262225350436693,0.22332672280401156
17,0.6420379381632977,0.9360042620107438,0.024073148813690118,0.5009523471241211,0.30014973501743647,0.2199960314673177,0.06976351819109357,0.15313954552259293,0.04286748383658305,0.15672890727274488
18,0.6005570833668558,0.9473826240181181,0.026983570562843905,0.510624175508379,0.33935674991112225,0.21759638496147068,0.08050173428268276,0.15004938216719577,0.12724495077417997,0.18767099426521078
19,0.5668242599431845,0.9570288850620056,0.029876861697292104,0.5145170796506177,0.3697119276053816,0.18917376036742756,0.09391165723050972,0.14684377138070834,0.059286329584380404,0.1871075787165388
20,0.536937771275996,0.9658757842729648,0.035661045355993126,0.5175968883030868,0.38783936256447393,0.19262289282356448,0.11357787964766702,0.14336610699303742,0.13156624049284452,0.25387368411362304
21,0.5104814821935585,0.9734196245494218,0.043191725166571146,0.5184939173675459,0.3999917869225648,0.17904099956087963,0.14125366571034395,0.13961502189746883,0.04756880759441147,0.25526838956436243
22,0.48669826693667534,0.979999264640767,0.05272999309015133,0.5171250540963438,0.4045532849164869,0.19582908585081535,0.17489802842566926,0.13553779850388448,0.17699961513898138,0.29257569338983275
23,0.4605130222397396,0.9864419466304539,0.06557675481435392,0.5131320618047501,0.4061610043330971,0.2484210089332298,0.21839065555326706,0.1310584733189277,0.04050955194685321,0.3621453294277964
24,0.4338313868628436,0.9922009873923948,0.0793723613527116,0.5031878780804444,0.40620866302825154,0.2615966491214153,0.2699218091099779,0.1262571370797525,0.05488962279474745,0.3727745169187022
25,0.4073756766535614,0.9968737018314421,0.09360702700459152,0.48635465223260527,0.4047818488621057,0.2950156780534245,0.3260188808913692,0.12111171663936046,0.0481525028640166,0.42995524572265215
26,0.3841779459310264,0.999678087470639,0.10751527098117522,0.46086725440870796,0.3999071948881595,0.31172204652371144,0.38617133094244926,0.11568317410957527,0.110032919939719,0.4590901122169304
27,0.3675211712509862,0.999462327592418,0.11719760137790518,0.4239970753871678,0.3909440335554534,0.30557796223600237,0.4436185401662611,0.11005298954392626,0.1667105989408318,0.47282818887841815
28,0.354779634579083,0.9961355244183787,0.12267404983127746,0.3743787837615878,0.37985816803517447,0.31510680360844284,0.4923632536723178,0.10434602600771345,0.4046327383776085,0.5010284018510927
29,0.34364097695463164,0.9898535437489218,0.12205167531289557,0.31109907711260637,0.3953015709244951,0.3356150670964182,0.5277047009640126,0.09877216215205631,0.4473132895281376,0.5350390151598283
30,0.32767748392218327,0.9815566216703921,0.11588227161546177,0.23686827876437916,0.4240032601913425,0.38188850440177596,0.5457334508409898,0.09345205680859162,0.3696723596030595,0.5939886286211477
31,0.31184371065924243,0.9698639989112723,0.10577525755955584,0.1789314956334282,0.4579344511253628,0.4319223897011349,0.5471855252230142,0.0885685415069907,0.08066771838267178,0.6456781991468142
32,0.300072246528061,0.9561063339905215,0.09311638156504431,0.18705314211382323,0.4925228384470417,0.43963639609901817,0.5346315024658029,0.0842154065163535,0.07122076775136649,0.638769434245589
33,0.29322027536411427,0.9424697029375866,0.07636343451729331,0.19872153532100806,0.5241757525141305,0.4319277827582313,0.5091791610166049,0.08037262829740267,0.05146713041949274,0.585357877566263
34,0.2925996518592196,0.9286949314497103,0.05725720776555309,0.20557830631599386,0.5528168217078918,0.44580651070685096,0.47153844401895684,0.07700784144526658,0.10593988192770015,0.5675300265879296
35,0.29769856550680246,0.9150964139808097,0.036780726319261804,0.2106039442571029,0.5776445724456151,0.4421267108932639,0.4265747424003325,0.07404962085181767,0.3868438434953155,0.5400974552266832
36,0.30269108152823565,0.9032014252784659,0.018541224396138357,0.21580000288326812,0.6019169469814348,0.38336444725631497,0.3826788300581233,0.07143709585050778,0.5537436273135853,0.45212845519855205
37,0.3042782892103352,0.8931140382722376,0.00666560807817688,0.26125707436484874,0.6219525362732727,0.2891485643807648,0.3518500639735187,0.06901664300777191,0.5778463458135655,0.36521248610603346
38,0.302618908828539,0.8849885428377011,0.0019037833947522173,0.29214591867893824,0.6337692161951078,0.19602566256867288,0.3415508137528928,0.06663954173376398,0.35226199746837755,0.27938892036647417
39,0.29722587980457166,0.877869490736469,0.00204209244479838,0.30982628382847033,0.6404935752866395,0.15937457003332264,0.34871747121869423,0.06421797013941234,0.1209845074757081,0.2542367643966579
40,0.2891058386775614,0.8714051532140206,0.0047462337171550965,0.3166802198664709,0.6447803485853977,0.16045772383345677,0.36558844176791366,0.06173679574629726,0.037563622506868316,0.26077500955891303
41,0.27394991621216996,0.8649549310468069,0.01012936326846907,0.3172332533187603,0.6522583728768667,0.19195729088114982,0.38903308339280274,0.05918234218142264,0.06911828866667581,0.3244685263501168
42,0.2564707144809581,0.8587592523891595,0.0168645310423101,0.3087469297887496,0.6593396296801408,0.21450222328337099,0.4188219816147666,0.05650976900364741,0.05299224839423926,0.3611382064894628
43,0.23082234128980927,0.8537773199414898,0.022188149129859232,0.29640711034787587,0.6793299506755829,0.2187188672530078,0.4487452332201018,0.05375700800147875,0.042966245755125046,0.36916163043147265
44,0.19907539400686766,0.8493156061464833,0.026069197666833695,0.28244460126120513,0.7080355082361282,0.2231623562086124,0.47401205547959735,0.050919394169355606,0.04333059285842784,0.35989741193133923
45,0.1645556064760156,0.8444336103486534,0.026732218903930748,0.2689562434222836,0.7415963493003763,0.2270787893309456,0.4942084329256808,0.04796876808977709,0.05617536577039576,0.31522110260075376
46,0.13485724515557096,0.8370713692021133,0.022681290420555656,0.26207139958272296,0.773935784502999,0.22796447888345464,0.5066927498785347,0.04495033419167119,0.17589762799498296,0.29947985972009256
47,0.11060577292537613,0.828218808041695,0.019914169423746155,0.25618101019728395,0.7990616494594834,0.21295062480093935,0.5156360577281947,0.04188389762212756,0.05778880197988265,0.30043830913396147
48,0.09804812614542088,0.8155157593587817,0.017125055764537822,0.25317575235217854,0.812091238854686,0.20710899626844337,0.5259660724576186,0.038798218727318395,0.11466081110482655,0.3367561406639408
49,0.08924636292837695,0.8026323151239606,0.01615658448452781,0.2523009031682636,0.8214936706702106,0.18933383313370297,0.5380224833062381,0.0356747698060355,0.06598751456287513,0.3205137952996067
50,0.07766296410707595,0.7894945304874069,0.019457898661389965,0.25234644095293124,0.8306752191514503,0.19774564725213842,0.5565908385357293,0.03252327970351261,0.0874544421691576,0.3178310106783932
51,0.06456588174844886,0.7748936660314091,0.02586043754571302,0.24971276037350132,0.8385674769506031,0.230842670708184,0.5833464133147443,0.029361741204535247,0.05419708990422363,0.343509076144938
52,0.04900531350488902,0.7590528051866589,0.03601276588611975,0.24462219855912443,0.8450082899249437,0.2593165631321455,0.6182242727436738,0.026204905490121316,0.04798671322714627,0.35415450690541506
53,0.0335248570236675,0.7400846561662843,0.04588168546648933,0.2520533529206461,0.8503461742543736,0.2692904822783926,0.6581157609789802,0.02306555571720215,0.08569333262242419,0.3656672528209736
54,0.017669164000376523,0.7179480776029434,0.05365882247463603,0.26217921631599095,0.861143985209425,0.2713427856432552,0.6952686612553187,0.019996565784433797,0.48426504765048295,0.3829639885747115
55,0.008966003444422244,0.691558119664337,0.060503678044435814,0.2699024057843079,0.8725128007682429,0.3207530425318768,0.7268621331162536,0.017090232060555925,0.36326619679932876,0.45607398870981103
56,0.01001708606173957,0.6587370108211715,0.06010294807356171,0.2864299564058325,0.8817413426341241,0.3514075753006882,0.7476187105070019,0.014437186305521746,0.4508556668646972,0.4764506574059724
57,0.022436551431458486,0.6214001585579922,0.05177158624886624,0.3340316200418653,0.8892504359426603,0.4128019955280129,0.7498444002862257,0.012119919201901702,0.10491199330101869,0.482391054758543
58,0.03656363656805657,0.5817786971373016,0.04322707225330076,0.38426457473399983,0.896138960752172,0.4408649348161157,0.7410034140644054,0.010160583128267895,0.2523763051751742,0.5067617316734299
59,0.04436203315993968,0.5451628487149698,0.0363741294775045,0.42998557176894653,0.909806069170626,0.3981672654004282,0.7342250179836042,0.008544245595169041,0.3431431987111341,0.4598676142311598
60,0.050706162667744824,0.5117305719276131,0.029267744362287133,0.46638804375299314,0.9224633081717708,0.34283768075860255,0.729957120636518,0.007225925158011721,0.2985789650108184,0.38858438449195337
61,0.057757320004907804,0.4821326669486041,0.021049684455669106,0.5021794488349453,0.9340694823111814,0.2947848748123322,0.7238074776796689,0.006175186625653213,0.19820889809688827,0.32038146963332825
62,0.06633640850684247,0.4551894085703709,0.011735232794232888,0.5358769491621882,0.9423576506597527,0.26372106919449845,0.7143230695611965,0.005349532085154707,0.17964368255300436,0.283673184677924
63,0.07674114396546611,0.4301132750446708,0.004000784564832533,0.5632612438260577,0.9437539402374313,0.2305778363782715,0.7048176538675218,0.004720682507014177,0.23464212571589013,0.24478965343014744
64,0.0849982020415776,0.40787827722465814,0.0018117772455710744,0.5842617502038259,0.9428492115994491,0.18915216215058173,0.6995509823901633,0.004249967969644194,0.12645130793572085,0.21536336297011502
65,0.09128036185346915,0.3876901068613611,0.005506236598906013,0.5998851362097183,0.9400079984748034,0.1681879938528042,0.6985053704120944,0.003901197757339203,0.04381473527155825,0.20824567684680828
66,0.09501276712185013,0.36884835102273517,0.007141991511157305,0.6079783533705686,0.9365182549004122,0.1703281006616935,0.700723519914076,0.003631997676498352,0.07192499742871288,0.2354868294058056
67,0.09724753964630044,0.3500629944297635,0.008030206590578093,0.6061895826312339,0.9343448338702356,0.19504607940408503,0.7044814750028364,0.0034085380911233827,0.06429460222855968,0.2728531594465353
68,0.09653395698605019,0.33135125202623894,0.9931729781426041,0.5958593877527895,0.9336899525460188,0.22407011024222942,0.7107770478283447,0.0031843270003563216,0.022607594190425535,0.3233259273402285
69,0.09188814576833347,0.3123086149781677,0.9970145144386584,0.5788560548653099,0.9327765883638126,0.25229859387012177,0.7230739403422973,0.0029179538804798015,0.12997209325727618,0.37926906630234064
70,0.08533742393740026,0.2941087962305851,0.9987130545934547,0.557832049050805,0.9361035244574142,0.23024726516439295,0.7365875153862638,0.0025886137739375694,0.12492084167113146,0.3708203932224158
71,0.07883106909391176,0.2760247160976312,0.9976276672732488,0.5371268472225071,0.9420596637276324,0.2030940357179517,0.7446498281584313,0.0022153187713477114,0.14143921406818163,0.33440137527422953
72,0.0745895596297141,0.25641081381022535,0.9931219590554767,0.5155853035971695,0.945486768548154,0.18515066181200956,0.7462184349555478,0.0018031250179146381,0.02079460135296503,0.29288337801257613
73,0.08145081274580618,0.23433537740979987,0.9835362213395851,0.4990234678442432,0.9364965778736453,0.19244385862661773,0.7406917064742913,0.00136352009914615,0.09147045431835908,0.2538016027258569
74,0.0900676973433893,0.21244071822290017,0.027948703236771198,0.4814231216024237,0.9266436749420958,0.19025746462744925,0.7304767018811011,0.0009100478397842524,0.0409383009372682,0.2057635247962612
75,0.10805761794587958,0.18908989498605558,0.04086881705383871,0.4661118635619771,0.909511823595724,0.2008799208598827,0.7172308449414239,0.0005029707488575552,0.07030994356617674,0.17515434044955422
76,0.12928355744729186,0.16583023685800685,0.053032687972704724,0.45826184390840696,0.8916300946829383,0.21423239615010442,0.7015230769198527,0.00019804565891141013,0.03744189387594159,0.18629674598767965
77,0.14718189065197604,0.14367613909556193,0.06254389049745937,0.4566735209026638,0.877030425899628,0.21964430162873058,0.6868739694254622,2.2763747653564187e-05,0.011602136160071642,0.2299963339668807
78,0.16070654407611898,0.12512327243704569,0.06666249868472401,0.4551215860810086,0.8637433737394355,0.20614316586579376,0.6787507117225654,0.0,0.017194532059899566,0.2270792283213876
79,0.1669923991655645,0.10868176703893506,0.0663944053749206,0.4495627539344828,0.852532164283175,0.2054819895354248,0.6804591483441361,0.00012148805030390048,0.10370671358956543,0.2561424364146537
80,0.16768364565279223,0.09445016123878154,0.06171870376296825,0.4428516949496231,0.841614351735154,0.23409994258341554,0.6920675048975918,0.0003870356350631594,0.08970689043465958,0.27500985187581817
81,0.16487413848626506,0.08216761702258182,0.05423137721098807,0.4372909913143939,0.8299089309138113,0.26680944424057434,0.712104403951802,0.0008151846457695769,0.053112457700605645,0.30721995285209397
82,0.16076032776519036,0.07370118493908875,0.04508568722498303,0.43547974427867786,0.8179259619551502,0.2844645576624393,0.7370132423857588,0.0014463173392168145,0.07651523842759234,0.3008387885782634
83,0.15671339958077118,0.06894458302119615,0.03474882796779358,0.4368148029954268,0.8044152313267909,0.31049038578481103,0.7650285978372137,0.0023331612044355083,0.09103662663546203,0.30849765901431764
84,0.15339780071451203,0.06906507961243706,0.024277743780620205,0.44266764951347803,0.7926728606081658,0.33932464339715646,0.7937165097421081,0.0035493486341664445,0.09615443661385717,0.30277137340535293
85,0.1585896366545647,0.0687901124754411,0.02034562753604134,0.45330576945939377,0.7792501111782402,0.37748845651664126,0.8143174787674674,0.0051975788347436115,0.3159136196946544,0.3223389108339121
86,0.172803415464297,0.06637635483338954,0.023689128080054914,0.48031632178090167,0.7646314324064297,0.49984963092253043,0.818255117355975,0.007408121591003194,0.37140331793764864,0.3839775851320453
87,0.19350296301217074,0.05766792982443218,0.03825917778181226,0.534018373209578,0.7549851709181897,0.6528456045119881,0.7971087872506465,0.010316090547786613,0.2329407507055456,0.480048596418471
88,0.21654518652849106,0.04265731543343771,0.06174418089288065,0.6093451367275974,0.7526615367483711,0.755875559307009,0.7483095571792014,0.013962860047409195,0.05359636111342367,0.5568696131534091
89,0.23965285371894296,0.025074015756718523,0.08866686241178004,0.6882363763195711,0.7535268799474721,0.7463264165862225,0.6831003855303778,0.01824728781314455,0.17279433465679306,0.5948418811703379
90,0.2661533497298104,0.009093672821149886,0.11665394341167637,0.7645879670914317,0.751636440795011,0.6918015424040814,0.6138207014937557,0.023021193381694848,0.11352085788020434,0.5893246074394387
91,0.2965718261619627,0.0,0.1436266391945132,0.8392732532593279,0.7458052711800703,0.648747681190908,0.5459150150672728,0.028171274275092386,0.14055760176511842,0.5656505363805563
92,0.3277339798940272,0.0051978134219103035,0.16704248778055852,0.9060786024198981,0.7340489907492823,0.5924928408922715,0.48373260700726367,0.03359166876465119,0.2522192148267643,0.5506170471622399
93,0.3535807221467476,0.019907241994481895,0.1846348673625418,0.9569911948998079,0.7229805174088286,0.4826873269223245,0.43343069555660557,0.039217901110753656,0.23286418319143848,0.48443616866680955
94,0.36790845331591426,0.03520390896040406,0.19477515403149492,0.9873095629650949,0.7123314301960253,0.3701574828552391,0.4001373112994186,0.04498832231032858,0.2129585689917467,0.4106774016730232
95,0.37368678676528605,0.048063958551234985,0.19912879360424915,0.9999999144400613,0.6997965500493813,0.2681077040908799,0.3839049238051877,0.05087678713719822,0.10657619984435598,0.31216195539559755
96,0.37065219366366675,0.05880058844606436,0.19900306105090287,0.9997059760821492,0.6860555257272467,0.2192587617943709,0.3812132498511985,0.05683203411832016,0.029574790325898073,0.27313030904270036
97,0.3638305324568208,0.06778853798918837,0.19758334312448628,0.9916307116598937,0.6718387160948323,0.2108208556717052,0.3862575870366739,0.0628198191549815,0.019749198059163663,0.2577733142116409
98,0.35477549111649614,0.07637245744079656,0.19568883003400248,0.9804906894875004,0.6584039032821029,0.22159967663364968,0.3930240615995044,0.06881301654799428,0.025703543203213584,0.26467418181039104
99,0.3417511363685702,0.08503616808236984,0.19281467916063993,0.961908000342389,0.6493418563921523,0.21151636727623313,0.4021019539447386,0.07478075551035224,0.0028271065652929013,0.25283495559964453
