Frame,Center of Mass distance,Symmetry,Grounding,Arm fold,Leg fold,Kinetic Energy,Potential energy,Bone length coherence,Torque,Center velocity
1,0.0756707625817811,0.9350886971995152,0.2965672600260712,0.2991431340440094,0.582396776901946,0.010675641340218379,0.840062556823902,0.07436298450799571,0.06390138904687516,0.006888711650329218
2,0.07630100450652019,0.9351399678919259,0.29709680723734466,0.293154909775014,0.5820282005549404,0.010675641340218379,0.840062556823902,0.07384287892254542,0.06390138904687516,0.006888711650329218
3,0.07666248885878606,0.9352673154034531,0.2977668079908548,0.2915686196247165,0.5816697196309994,0.0,0.8415861699753234,0.07331892588360284,0.0803835619158558,0.006291015411602144
4,0.07811066332684452,0.9365208625009589,0.2987831725077362,0.29213673987827304,0.5806342447769258,0.02145539595327542,0.8441561141978277,0.0728343542557779,0.07475541928112495,0.010913657717487247
5,0.07790682724349189,0.9381654877228872,0.299728573530988,0.2977215096291827,0.5818298978045374,0.007126537466060303,0.8474192713250702,0.07242052985724161,0.027217816888504366,0.004511289170870851
6,0.07818368344766717,0.9404098633232171,0.30161865373826285,0.30305971437999896,0.5827371819005503,0.014738751395333708,0.8505195855770544,0.07208243103949372,0.0228188066079086,0.015978141904769854
7,0.07797516345165624,0.9432211271950456,0.30315113330345617,0.3087453753800655,0.584184010531278,0.017156796651575164,0.8542397331176808,0.07167754001459328,0.07668828070048787,0.006682165507298563
8,0.07648992835563943,0.946517913378142,0.3052661817758238,0.31524764305357506,0.5874329865111274,0.03982923624997098,0.8580055935430158,0.07136609920878917,0.030885781079629183,0.029482982170336382
9,0.07382941123571671,0.9499064263872782,0.3064051622201948,0.32164660057137345,0.592089736475347,0.05315046708982687,0.8614227154425086,0.07112740056524099,0.04991252342817774,0.03972664784825902
10,0.06950848485832274,0.9540824503095279,0.30833687097018847,0.32869707605438153,0.5999449603119285,0.07381277852841155,0.8650109630246486,0.07105401535325409,0.05637063108016949,0.048514902026906566
11,0.06428759170766703,0.9587684488350408,0.3112890445815466,0.3372654504789009,0.610162843224117,0.09660636772739577,0.8701095748695316,0.07106036738673466,0.03807431442479185,0.053753017389589625
12,0.05506810792669625,0.9635654838860687,0.3130650295408838,0.3420784448858633,0.6300678346659563,0.11215372878217175,0.875417868826355,0.07116447212599246,0.029025741183995025,0.049112263700360835
13,0.044978522823099325,0.9686964658951914,0.316844170450544,0.3467295597848871,0.6552649374642614,0.12742501624663316,0.8807152796053536,0.07135599374703512,0.022691040493398103,0.02706459695523103
14,0.03480955842200422,0.9725761316738698,0.31906218147512055,0.3545685551842682,0.6820007076325335,0.132518577426036,0.8848475979496394,0.07143020646582827,0.022847574259271055,0.02067469183558836
15,0.024975836965195213,0.974219950081331,0.3164136566047517,0.36033370462332104,0.707481392787501,0.12270359588369026,0.8829175802585995,0.07141197542008076,0.026927358266755512,0.04145102487957411
16,0.017724476275382404,0.9754751849286227,0.3125990190649935,0.3625669992020792,0.7286449772587542,0.11418574687044453,0.8761020239052884,0.0712188996217813,0.11152395891055274,0.04759211172855543
17,0.011343121938745412,0.9752691800385217,0.3070998468986599,0.3648272801232263,0.7465338570980916,0.1362331375767741,0.8664573497297618,0.07082425694438982,0.08792561456388347,0.06158602110913245
18,0.006527364492179164,0.9747516974342715,0.3013720898294501,0.3708592949971073,0.75978808870159,0.15102637363009527,0.8531424819414071,0.0701514587826833,0.142369211704973,0.06091432567848062
19,0.0023884704482332987,0.973861600263184,0.2948920200097669,0.3809041725558354,0.7713619501392851,0.18506386787716414,0.8361695190735177,0.06921048241609673,0.07132199159473832,0.068830567015195
20,0.0003870817424079452,0.9723833046528476,0.28875381920197096,0.39378645200433926,0.7792185003834539,0.2030045945442649,0.8169189856987756,0.0679611814708458,0.05626938523384118,0.09026731618132508
21,0.0,0.9707138895336932,0.2832944523761813,0.40812850376434545,0.785997802999609,0.21905613398702467,0.7980318300298251,0.0664225557962582,0.3189665249928648,0.11013296259529318
22,0.0006409114974301934,0.9680897225675971,0.27658207683285674,0.42894624337831916,0.7960288782788769,0.3009635294964811,0.7777856959091574,0.0645268772413722,0.09006029629372239,0.1621062849889246
23,0.003993987367247401,0.9641199203860414,0.26820399401602774,0.4552317635094235,0.807294890096217,0.32743479887555627,0.7515904017766456,0.06223086129322333,0.027076680743881396,0.14677169523106873
24,0.010637828159653386,0.9586173878090171,0.2556066641678139,0.484579066983269,0.8183235419057471,0.3319218125343109,0.7174800391966264,0.05954090438432927,0.14025586190194572,0.15271813714492605
25,0.022465923733500495,0.9502455741039246,0.23761456094229078,0.5127244179353186,0.829933089314141,0.36550742970718963,0.6775313455235946,0.05646164166722394,0.06855098598705174,0.2330669967370121
26,0.026369825920505584,0.9399314981592596,0.2102189166971074,0.5353077454444409,0.8467090552908626,0.38050958990707845,0.6291358803380328,0.05307710711325415,0.2235360127897602,0.26314505877857525
27,0.019603774836712714,0.9270843525134941,0.1743096029264186,0.5479532984531308,0.8629046732145267,0.4311554421999088,0.5719735324265626,0.04946618106945662,0.11189429606883579,0.37516094731993344
28,0.021141506705899014,0.9138723307854303,0.13345822059925533,0.5449305573719972,0.8776561203579815,0.4578727102364298,0.5134463201569816,0.04580775033395424,0.2014493015359472,0.4454059511826469
29,0.031131172224219225,0.8987465153708782,0.08743224818437154,0.5246174770911962,0.8893797053052802,0.5225252317122672,0.4561908075719305,0.04226156914367448,0.15664758801616754,0.5127444384372656
30,0.046288903619496,0.8824796994116575,0.9588307304715614,0.501563551993745,0.9026381671245418,0.5010122576450254,0.4033763544600072,0.03892699023326602,0.21243568168940422,0.4995066461946584
31,0.06340126660599762,0.8653351476191844,0.9951688167439244,0.4764706145072452,0.9148080002997312,0.4650849355078386,0.35917022565539286,0.03587160815164014,0.21845394863174245,0.468490788454542
32,0.08168622925982107,0.8480932384968259,0.9822461383280201,0.44916067422634254,0.9240075910607163,0.4260865346740956,0.32326024319983593,0.03313832216327804,0.21024555883666732,0.4320386595428129
33,0.10042386407609855,0.8299926965506648,0.9566966909300093,0.4255956344017333,0.9324093623424614,0.3703434899180593,0.29382625707645627,0.030682530787064573,0.19281655099380707,0.389792820076182
34,0.11907519547158336,0.8124884956065056,0.9353885029390289,0.4053526925592245,0.9382859024760548,0.3207815492441057,0.2689754679986069,0.028479706665063033,0.169307030001106,0.34118448690011244
35,0.1380427445004944,0.7974024637805337,0.916657266110182,0.388986882103177,0.9431329087562872,0.2754049917024188,0.24781946081016995,0.026497128386420748,0.15590169380862257,0.2865394729701289
36,0.15526564059909922,0.7848495262911794,0.9017150750158718,0.37712792238381376,0.9481767319851924,0.22489460546283135,0.23020715084709228,0.024677169563897646,0.021026496885846516,0.2285809510789569
37,0.17060371904731425,0.7742217301940989,0.8903031688968176,0.3757299920505597,0.9549063774446925,0.2119849924587157,0.21545919900644683,0.022976859385179228,0.027007812225183447,0.19749163749139206
38,0.1838431610095722,0.7639719017752845,0.8817937113404182,0.37969604255137296,0.9621391832588302,0.21795593898857502,0.20287016395922358,0.021378842843503706,0.11819175100578645,0.1827030535918062
39,0.19646602797894314,0.75238242764742,0.8752659033903202,0.38812919086264924,0.9683640170079781,0.25326829041426335,0.1929366139636719,0.019895621267265122,0.08963588736974175,0.22161199420137237
40,0.21191899320203367,0.7380514206097704,0.8677799989765204,0.393774375422439,0.9719471363057887,0.27990722213614716,0.1849826871482808,0.01855007456119964,0.06202602002000482,0.2622428333197904
41,0.22707035220453078,0.7235717280878691,0.861570544451075,0.39901277294832305,0.9732005097494907,0.2997126819680676,0.17927651360543687,0.017351643162516077,0.11161018942037752,0.3045981249404061
42,0.2390546456254475,0.7100095620752077,0.8581851631196905,0.40621323879235915,0.9718203731150228,0.2736542403983347,0.17747068933840607,0.016287285469898497,0.12757912146246084,0.285983981538874
43,0.24164482856535785,0.6999958078687344,0.8612176915762895,0.4146345588418781,0.9725484968312252,0.24592292836770901,0.18151830551611095,0.015337008819768919,0.031959821210083825,0.23344594583409842
44,0.2361025729413242,0.6924179540249846,0.8706579496552586,0.427776194447391,0.9772817757411177,0.25451071006573106,0.19342531506161853,0.014480370006870054,0.17615024423508394,0.18768909886308677
45,0.23359355803640525,0.6829263968652951,0.8770320132913473,0.4337414550389087,0.9852212987356141,0.21387104984839556,0.20633500390619375,0.013732859665803777,0.02715041620022947,0.14790466020784676
46,0.2324810555759743,0.6732402728039059,0.8842678785497398,0.43949235474107334,0.9863483865105775,0.2184152734548067,0.21805557935975706,0.01307278694809049,0.015300780971051808,0.1733290378052324
47,0.23882050940918612,0.6607360894384056,0.8846299888265885,0.4433508125681066,0.988615645985106,0.2108047623675305,0.22653867805106906,0.01251184202024424,0.04845188460107374,0.18987816412893097
48,0.24611974702371417,0.6486670402074234,0.884358071245083,0.4460579972224363,0.988245638270117,0.19523590051384065,0.22863660050463414,0.012023570933167629,0.16756324806613399,0.18138653928608323
49,0.2560104505967818,0.632894190128628,0.8842533822320393,0.4553941416784709,0.9855777594884007,0.24918715603223557,0.229433841685816,0.011575226639125835,0.05300213815698765,0.21405348414392983
50,0.2645790695721921,0.6160391155036257,0.8857790378119496,0.47095712729338635,0.9824284825603601,0.27396903292533303,0.23109262795472024,0.011131935310777615,0.13928223140905366,0.23871556119163173
51,0.27300476167263193,0.5959525452026995,0.8892802706186727,0.49064211155457643,0.9766364974548465,0.32531566756885827,0.23490855089787846,0.010661073791855906,0.19576785968361163,0.28262448435282256
52,0.2792852891974347,0.571148079930376,0.8973258757752253,0.5170355592481731,0.9697997004995546,0.3986064927746931,0.24161578431047578,0.010121539185727672,0.29455211994462094,0.3159174048499363
53,0.28354488571021064,0.538894282741127,0.9106537366891541,0.5544575854000695,0.9625966433191682,0.5045852712552591,0.2526923778353166,0.009456367421355392,0.19567393807568442,0.373763680193877
54,0.28606163435285853,0.49943788665747696,0.9276998882099524,0.5973837448021959,0.9521369372153399,0.5747626140359148,0.2673547568329691,0.008660410588399363,0.1683594410942027,0.4232097947152759
55,0.28642463405673974,0.45046991747494075,0.9469949335676766,0.6402121631513735,0.9393384538814921,0.6407128923258578,0.28410359057616924,0.0077108567666215955,0.2867239510226278,0.5080747441883162
56,0.285108621632625,0.3880225099233423,0.968243558659851,0.6873012783422829,0.9263700288718931,0.7550333754813122,0.30299834430588785,0.006622391077550287,0.20890565510941458,0.6194131715668246
57,0.27723537664326686,0.31366511593589386,0.9934881071210956,0.7410079530556212,0.9127461502312625,0.8448631802310409,0.32352345063724763,0.0054131961965811016,0.29620459591356346,0.7278928037965622
58,0.26770176849822125,0.2470452697216999,0.991169797651978,0.7788763061519398,0.8950214757888898,0.6910566596501473,0.3434892801095303,0.004190707441627547,0.36772501743066455,0.570772703891294
59,0.26279121939169936,0.19916548841698645,0.9712494609230558,0.7912305748708217,0.8691086902940958,0.48579106790777166,0.3631066609293913,0.0030411673690121095,0.28766813392332,0.4057388872446394
60,0.2649063770910169,0.17763411951034286,0.9609505118279422,0.7810620488008538,0.8457502847719052,0.26046563831902886,0.381994141505585,0.002056143211005921,0.07826645168941632,0.24736738989551516
61,0.2742175128532776,0.17676896459628252,0.9616534046370149,0.7514853990125692,0.8279164890067793,0.2371722668952155,0.3966015202145756,0.0012795507037474778,0.07639339254716745,0.22798915102712394
62,0.28387230245199374,0.1820697842832858,0.9634720674105266,0.7202150728724122,0.8133967622340275,0.21903688324697226,0.4068158613769139,0.0007179576627422624,0.09109513475718116,0.15656193887606992
63,0.2906334377997551,0.18538078200730151,0.9631808015610431,0.6990544173003882,0.8031529248042151,0.14610065599658875,0.4140800883018728,0.0003342926851673201,0.03325540635865693,0.08646658707954731
64,0.2923894029809474,0.1853327811896652,0.9585465341815316,0.6884531531039421,0.7950550630458657,0.10648391787994038,0.42111152080391506,9.532054328484343e-05,0.01544213535955854,0.08192545829973177
65,0.2911031543897117,0.1827531751676685,0.9534238867516904,0.6850957697253411,0.790528431331088,0.10165714228159976,0.4280576950323813,0.0,0.04872793181887514,0.07526110950055007
66,0.2846000860523959,0.17764608934300824,0.9440915622414721,0.6820490267451963,0.7904359885843181,0.14455722538965687,0.4379785812361417,4.24857181280544e-05,0.10192294523202221,0.10657777161466275
67,0.2769136662599912,0.1719703372348105,0.933957043657605,0.6768703233640989,0.7912145936640114,0.19985205561922303,0.4557579459088468,0.00023852822188665838,0.0787758926262869,0.16587522749072137
68,0.2681163880762914,0.16552177678521032,0.9213528079660515,0.6743407532212164,0.7921908005425348,0.25154211547824185,0.48092215512550485,0.0006041000890019036,0.007301437302478512,0.2244314324138923
69,0.2607908077179867,0.16092509675343433,0.906005717156095,0.6724563342353902,0.7882125586240265,0.260128563509467,0.512726528955907,0.0011488427274964025,0.043749971545192015,0.22191555716773967
70,0.25756665481282154,0.1581978964356161,0.11471357393237137,0.6680669446750506,0.7766656675778769,0.24955290510929962,0.5481955822884269,0.001879813874903579,0.040103774293510586,0.16668026700073832
71,0.2583586679678925,0.155463305069526,0.1352125429400988,0.662545179460709,0.7567040847367157,0.2575767515992625,0.5854570583578294,0.0027906679555352006,0.057949948313618105,0.10420368517360137
72,0.2636141142469946,0.1531594811553615,0.15363459444665814,0.6594347918216881,0.7286456091681163,0.21763359670411617,0.6212942007573321,0.0038361156689202458,0.005539291617998847,0.09125721058572112
73,0.27181309526031927,0.15296705486311102,0.16702439958468238,0.654484276840595,0.6975235026989254,0.20003049961937075,0.652220047693927,0.005020639965600565,0.007815854855688328,0.13155481492841112
74,0.28061429721711173,0.15584016997988753,0.17073224212684388,0.6430074955238685,0.6704957266127352,0.17967626144014073,0.6747024021645424,0.006343700259502634,0.02393199836128504,0.16982253916113538
75,0.2893017078449011,0.16096423893342884,0.17005261188919393,0.6232638272632968,0.6464377413845345,0.2021211653183283,0.6906717351415816,0.0078010743668148605,0.009550389826514892,0.20948592837067703
76,0.29642306801530666,0.16462302817498517,0.1669120307975797,0.6074164435968407,0.6281768061074223,0.19108401562524208,0.7048689970674642,0.009388405473242337,0.024546033421983658,0.22784469611789915
77,0.3017742778218057,0.1661056203634936,0.16523166349026114,0.5914345313838034,0.6147358236925828,0.1713238188143785,0.717753354702923,0.01109913470044665,0.018026088403769177,0.20257503326104961
78,0.3061699590911882,0.16339837493463152,0.16877904935775323,0.5765542769205765,0.6009449933267382,0.14694309012255335,0.7316304226431501,0.01291332802447435,0.038926061438794915,0.1584537345795869
79,0.310784800597685,0.1558053805384182,0.1805039658028413,0.5701824239956558,0.5825456587705902,0.17537063329851402,0.7499607281636751,0.01480520997536381,0.07908104778469544,0.16876947937484016
80,0.31633343468731207,0.14372118736511683,0.201374094123518,0.576296827652012,0.5576292375816947,0.26426332854368734,0.7772797357289897,0.016740862107510277,0.0561219099355153,0.2447043127404455
81,0.3222325660044268,0.12908447267486742,0.22618284517348378,0.5869750486216045,0.5340423724808493,0.3196386220741929,0.8123816880959498,0.01872644639658547,0.04380820840545612,0.28554033949498064
82,0.32742174017165354,0.11670265849678545,0.24838261623617103,0.5833964173126496,0.5174612433247228,0.32020412360602246,0.8492393368686537,0.02083937917019741,0.006255601548979325,0.3038349042410004
83,0.33466368570228666,0.11431077182484974,0.25452147190842156,0.5522772327010457,0.5031283437095531,0.3006957891853529,0.8778740828694748,0.023239573923577766,0.11688708577513465,0.33823309972759324
84,0.3438844978998735,0.11830911409569843,0.2398180607658838,0.4797946058066339,0.4899867911851187,0.5081903682636926,0.889192459998803,0.02614083096825306,0.2915508638203341,0.5714961806239492
85,0.3549658799549017,0.11548999977988264,0.20523717674963637,0.370391160674745,0.47798119162094815,0.7594055254852948,0.876299390328298,0.029747730413059045,0.06604790432307564,0.7823980890828973
86,0.36846398517969364,0.1005270090318223,0.1620837895899476,0.2517438169843644,0.46334183245416466,0.803918593390435,0.8343579877573716,0.03411151643029957,0.0725548953502123,0.8166880365308862
87,0.38495221265516544,0.08331205299350884,0.12262403887873959,0.14633621935616808,0.44063066842317367,0.7061913866574657,0.7735506794713047,0.039139366248528096,0.03198340061857459,0.6967832651736638
88,0.4033032938979357,0.07350786649640141,0.08498667176180824,0.054342276979783555,0.4169103191056362,0.6396695349114306,0.7066590455790698,0.044735293990425556,0.02898707440904125,0.5777571438078462
89,0.4251295625254469,0.0702165441847946,0.04800117755962008,0.03779870581411096,0.3938480323201783,0.593581381422264,0.6374744115387928,0.05081248821236183,0.029738453807274273,0.5085419811700286
90,0.44870980566086965,0.06948518892126872,0.012211733750696292,0.04560050076159475,0.3774910271098058,0.5562823961852921,0.5669752457331324,0.05731819890846792,0.0361127778956936,0.48104667153754743
91,0.47252966525791773,0.06952702291872105,0.021854062163770553,0.1116999834561155,0.37010948881503264,0.5192337750273448,0.49635089996681625,0.06420038834170702,0.08579066099107889,0.43012923751767224
92,0.4960033827589939,0.06799072533812543,0.051322322641317725,0.17890518512777426,0.36786576910608354,0.45817920424391556,0.42896511635395107,0.07141993549361304,0.14163712764743666,0.4118534701585104
93,0.5164039386889661,0.06481486955380417,0.07358920242732234,0.23283068214872044,0.36867152304268513,0.3586750191594832,0.37033015181180007,0.07888974481021208,0.1945123202685925,0.3707594329216787
94,0.5283035098651285,0.06036440458998729,0.08462128716268623,0.26771097579119085,0.3689165479267845,0.22555482019047707,0.32868563397705,0.0865193791463795,0.06008990382124659,0.3126064117250333
95,0.5319224928684226,0.056558044601404914,0.08667339423099348,0.2870667837561749,0.3659285480931553,0.13761304847619843,0.30790005861311753,0.09422270332936933,0.0755528948980798,0.24540842392283227
96,0.5298861343661521,0.05287327785849693,0.08225454749049159,0.2968093635429089,0.35744121577063903,0.13945912613769013,0.30381468858768623,0.10199967587442091,0.01213465117034205,0.24098851969609977
97,0.5264534330325811,0.04940973396482298,0.07760864138362711,0.30672394061743735,0.348129802804253,0.1544916677342781,0.30604669547327434,0.10988935757527714,0.007966580414369092,0.26324168877748816
98,0.5269898413473019,0.046069321795229344,0.0752662805290846,0.3201789518863672,0.33745183109572185,0.18246313119844468,0.305265997508703,0.11793136572976874,0.01783995936248849,0.3197297364006896
99,0.5292221211839987,0.044012811930299274,0.07396152263635024,0.3329363801359216,0.32452541076054714,0.20782015888442873,0.30012343588829793,0.12616106901318883,0.0053849420768970055,0.3601712123555426
