Frame,Center of Mass distance,Symmetry,Grounding,Arm fold,Leg fold,Kinetic Energy,Potential energy,Bone length coherence,Torque,Center velocity
1,0.05856563109639428,0.9442461282541827,0.4410348574383468,0.4423028418016294,0.4237317765640109,0.08038503885783517,0.7295881017125401,0.0,0.06304493671046993,0.06042187182358345
2,0.06322291833181387,0.9448529857868923,0.45386251408497563,0.4428467911523187,0.4130694797909139,0.08038503885783517,0.7295881017125401,0.0020271232537537303,0.06304493671046993,0.06042187182358345
3,0.06964788082707461,0.9453749337983224,0.4679429374138201,0.44160466534558723,0.39960333723525593,0.10476586547444462,0.7392059432491024,0.004209763108568076,0.031355196296427315,0.05486695370640926
4,0.07678579284075253,0.9454828266235874,0.48056142562343906,0.4399642717998761,0.3848347987924035,0.10065296754943066,0.7502094772621715,0.0064907824630962615,0.022920638109016348,0.05629519583157072
5,0.08317776034272788,0.9463048373180831,0.49110028856189775,0.43734014541744504,0.37249305080272654,0.09541674620533096,0.7609179362061853,0.008940720595881392,0.06021483666378091,0.08241201014957149
6,0.0874448932643284,0.9479451193999289,0.497198003937417,0.4332031481434009,0.3645098782371322,0.08489300537883226,0.7702997446663962,0.011698051922153275,0.08878842118833694,0.09170972474048995
7,0.09096729911460898,0.9508964782150116,0.5030529831980383,0.4300034471832484,0.35854313948596667,0.10279633902683442,0.7792858640831839,0.014725068125487939,0.04743689876070143,0.12824474000186992
8,0.09388396903278913,0.9549623471680236,0.509226377522517,0.43075301163562685,0.35436378222519344,0.11323300970688883,0.7893715051766792,0.017907590799558164,0.1530177454967868,0.15344392642192095
9,0.0976054660111602,0.9603794088953664,0.518492993056559,0.4363638801572878,0.34963102807067714,0.14365164610716244,0.8007842931683178,0.021235678324136135,0.08733056045842698,0.192059550168679
10,0.1026896037161627,0.9662571169996734,0.5297375833868303,0.44583082208196634,0.34295059496062136,0.16332077244896337,0.8137809408626137,0.024701193532012562,0.08678218032054096,0.20681959517444415
11,0.10914917408583864,0.9722497088711478,0.5413812043975749,0.4594235992516471,0.33393898528532984,0.1853203916660006,0.8281672882187447,0.028340500048762755,0.030371204831810262,0.23079964829831226
12,0.1162950042870689,0.9780206128174272,0.5514509675562104,0.47245898280715076,0.3233466909022445,0.20304673410152937,0.8435267535169836,0.032286769107871365,0.11012176697056461,0.25247421957801247
13,0.123252666094302,0.9840413961147759,0.559821528045231,0.4849334010073629,0.31305257867383124,0.24445600951389068,0.859773758709462,0.03669022687565303,0.08739678394991778,0.3157036574934639
14,0.1298859609982878,0.9899105643489858,0.5652726396883819,0.49446121497734724,0.3022266222789409,0.2570464615346729,0.8766785236431949,0.04168841893128498,0.13502274534418338,0.29271877040728944
15,0.13705309611592748,0.9947335103316921,0.5650043725245928,0.4987367616455412,0.28824195322852547,0.2736033861961699,0.8925972680925499,0.04727456095121575,0.05387148797437718,0.2803240783868475
16,0.14537390492432126,0.9984576542352659,0.5619908859774847,0.5023442561426795,0.27115259382131063,0.2805362707172616,0.9062184489830899,0.0534014596129522,0.05247290116109361,0.2862055404711738
17,0.1573374687736354,0.9999999966394869,0.5596928838050659,0.5085587629312114,0.248052930729308,0.27664235415044636,0.9184741459839961,0.05994502909503517,0.08090068836810296,0.28722660177746373
18,0.17148555029862736,0.9998580554949047,0.5580536608163912,0.5197032428937456,0.22231976794590244,0.24558021185263249,0.9294677409420733,0.066719840895198,0.1044566622095972,0.2559706426732803
19,0.1853083352308935,0.9987599273549207,0.5534075584368153,0.5288939418472045,0.19766500911433552,0.2244528277295298,0.9376509398395071,0.07362762732132742,0.061593177489006126,0.21176230121577685
20,0.19760166301840576,0.9976370090973389,0.5452708663448648,0.5333752442326015,0.17666855828722722,0.21493063970903994,0.9425321244743042,0.08058126901970063,0.06732655824870802,0.18907611261592125
21,0.2080502943009157,0.9963500299471993,0.5374454585746007,0.5348250264625288,0.15968903976527032,0.19269730618566872,0.9453925720271272,0.0876149779311956,0.103344562297502,0.1580220662202911
22,0.21684446288013734,0.9952761348450878,0.5323039524536978,0.5386619595191812,0.14634774658601069,0.15840040071454478,0.9477985643315902,0.09471959037666045,0.03624129368969046,0.13698598070072265
23,0.22423463936508245,0.9942212774627749,0.5292160252799883,0.5420635264797332,0.1362182845484413,0.14322277378710999,0.9500768706580623,0.1018919377041364,0.03253458172989316,0.12713373351727073
24,0.2312837735457404,0.9925001237672965,0.5272653766845258,0.5448138184198403,0.1272803997637639,0.14481340467675477,0.952891384759849,0.1091682179632987,0.018048486922833493,0.13028396108114437
25,0.2379075519111412,0.9899764620196919,0.5243182359588039,0.5456268002445624,0.11914902296890331,0.14634385561376598,0.9558408651424553,0.1165523551953103,0.023934851972948805,0.12782211101111762
26,0.24480782774684823,0.9864225603835631,0.5216547126075815,0.546108704923494,0.11110078154717398,0.14791175095407602,0.9588343457737075,0.12405403756042137,0.04783025072325522,0.13083676980507322
27,0.2519795130055186,0.9814117250169822,0.5189932171131069,0.5451886437276873,0.10297870628944567,0.1602941528698623,0.9626062825103928,0.13173936364837666,0.09879496943201581,0.14276137074870623
28,0.25745657948841966,0.9763335656534456,0.5164901770151686,0.539823879643024,0.09711171273235272,0.14605363640662794,0.9651505536192033,0.1396542888753981,0.02830717105711044,0.13077588308085653
29,0.2625471546134648,0.9703863491877263,0.5120945731201733,0.5300937262254642,0.09218211883156582,0.15743768987948867,0.9654243544400029,0.14784458772205739,0.08069920343620116,0.12195944165246175
30,0.26764504002407435,0.9635420764496542,0.5063121063600649,0.5168416994992624,0.08677456688144856,0.14298638102129252,0.9640684405655535,0.15626109174418534,0.019013923344435035,0.09397028136917128
31,0.27252551584588824,0.9561174126188083,0.502062907073555,0.5055574607080098,0.08226682402501698,0.14111317347630253,0.962109187574682,0.16490871662755038,0.10914026325954344,0.10754965154401805
32,0.2761107548930158,0.9489651972237844,0.4993282258966142,0.49681846727903134,0.0789972242603507,0.11519545043578183,0.9604601528772677,0.1737009157864909,0.07056032839883598,0.09754429895708049
33,0.2797549459472566,0.9408554482414517,0.49725349573866917,0.4875109450315583,0.07514057208115721,0.10150861408563296,0.9588751014630486,0.18256018011878206,0.11715519689101937,0.08970835029213854
34,0.2812728839478139,0.9341108753017493,0.49660160628133504,0.48296964149247823,0.07406373336087675,0.07062942034696389,0.9575645283811329,0.19132933404772917,0.10050580644656021,0.07088180305839153
35,0.27981466198651944,0.9295459407004192,0.4947939880737038,0.4791492911724497,0.07671495472914361,0.05006864174808572,0.9558967746434319,0.19992731348003806,0.08502150031693075,0.049536294905035756
36,0.27740388185926595,0.9262412004556644,0.4931091964844201,0.47867642890121065,0.07958518757564935,0.03154072984163792,0.9537789233922429,0.2082453055990105,0.028661585911804014,0.030085718371183227
37,0.2746289481255842,0.9237378467278795,0.4922799692923069,0.482106942134919,0.08143070528659789,0.032089310470451014,0.9520551410605086,0.2162103651158189,0.05035342935321492,0.02116532874479438
38,0.2718274889941196,0.9217211183644126,0.4931515321494761,0.4887219517143253,0.08238358448993237,0.04286005302391256,0.951029773730244,0.2237789822631654,0.050921802638047756,0.011102541939474537
39,0.26883160011352747,0.9205337417192531,0.4967130552935848,0.49861408963705506,0.08339846221167378,0.05874774849489821,0.951508209403174,0.23088855941015465,0.017031093020867548,0.015130194680751054
40,0.2658560193142073,0.9201260324398726,0.5026243158898478,0.5106144930565073,0.08507810964252281,0.06680742884882891,0.9537041030476207,0.2375002628142119,0.10565130394316148,0.013889521487283186
41,0.2630341965855629,0.9203199610054774,0.5086252509709861,0.5193384162965018,0.08815835293582017,0.04662031984039204,0.9564946015426639,0.2436534713521303,0.08699112957901664,0.013828527837323334
42,0.26071127512929126,0.9209370108464559,0.5130642044594115,0.5265077024140029,0.09139847137860142,0.02884200241215345,0.9586722913446762,0.24940318368844164,0.07426425834114397,0.017236659590497708
43,0.25823316087371684,0.9217681987251438,0.514049077967812,0.5323031006363095,0.09490798824705364,0.009835931468342943,0.9597345167080196,0.25481457244190486,0.02246671723998323,0.012662394853032562
44,0.25519409382858843,0.9230142216704692,0.5140821636141779,0.5369264745673054,0.09919365721068862,0.009519255905442182,0.9599069630725877,0.2599276171705197,0.023254049939310018,0.019830002114427356
45,0.25293559758285716,0.9237520297775171,0.5126828676601519,0.5426357865596556,0.1013468246272597,0.013212192999762784,0.9595049704458589,0.26479714136874893,0.043490380186061176,0.038101308634153695
46,0.2519048444117714,0.9237456905405281,0.5105118059957947,0.5476454320660564,0.10210605717978113,0.00938693660199085,0.9588532839765003,0.269471981356501,0.05661090317461609,0.04178730874184741
47,0.2515789907154589,0.9230114871108123,0.5089020534170705,0.5553751856990665,0.1012074270376615,0.021266144546480337,0.9585611457028282,0.27398111623098964,0.03401829110887253,0.06264450716703678
48,0.2515982565656553,0.921908670904082,0.507092473839798,0.564439377018889,0.09957065720142329,0.032755444379482114,0.9586530527392402,0.278370446000597,0.0271260542820488,0.07722095530203678
49,0.25171274521188497,0.920672432424135,0.5053775719021636,0.5754781476230012,0.0978855655717079,0.0446860000633116,0.9587494333311513,0.2826734939287619,0.020887157080845778,0.09705937412367348
50,0.2508365722602616,0.9196911819646145,0.5050265366016858,0.5862142830306951,0.09859406475547401,0.04822445772615782,0.9593617122801186,0.28691392037287666,0.06998955865619842,0.09496555410080884
51,0.24950050903231474,0.9184727944186055,0.50937992949495,0.5994866472420219,0.10102751963313651,0.06963339149323466,0.9619953317795134,0.29108701877789417,0.01827513809277177,0.10848486711847503
52,0.24620540045730607,0.9184577796948525,0.5158011711306377,0.616702121210574,0.10704227126509533,0.07913579778002386,0.9668566657981927,0.29515142954369017,0.016765646833210274,0.09996986156899529
53,0.2422995258265948,0.9187521630577153,0.5199515373333538,0.6288781927466728,0.11277510225721259,0.07843688758923748,0.9711626980363771,0.29907942515531305,0.06376296733026975,0.10306168943124192
54,0.23748851862834056,0.9193017279541401,0.5218369620773521,0.640439260033999,0.11808961807259104,0.09327032173226418,0.9733354125486439,0.3028533697425547,0.03132439291698945,0.11743467090848517
55,0.23310283485746316,0.9194522201082639,0.5224743905890252,0.651618061939694,0.1217287628281751,0.10040095990955522,0.9744790564342989,0.30644170421661704,0.11440344032044895,0.1275224803429716
56,0.2288467487930333,0.9193494331769614,0.5251877626483368,0.6689895922198665,0.12419288364078732,0.12927759319999574,0.9762339356508374,0.309792695419572,0.0842679300396116,0.13615113758193417
57,0.22460435284248956,0.9185867663889152,0.5283216490344057,0.6904656819176194,0.12611578874252502,0.15329857340121397,0.9792867255373433,0.3128718556243253,0.08494642862927035,0.15591419016617944
58,0.22038134598365985,0.9173963563746229,0.5332887012987737,0.7157710862747376,0.1281074335676752,0.1774240750815061,0.9834136590328716,0.31564517890556293,0.1394222472694306,0.16269412942787703
59,0.21569773948988225,0.9154353953941687,0.5395061973520744,0.7449877485269875,0.13081517452861963,0.21560925629158825,0.9885689807581326,0.31808319706208416,0.1133989128494789,0.18249982644710697
60,0.2105393830099842,0.9127678897943924,0.5466509724577808,0.7761565828478336,0.13470689510182415,0.2470857100808818,0.9940929912805386,0.3201734152086266,0.15455157128588246,0.19661623976942258
61,0.2047921916654574,0.9088175895450078,0.5525122596826302,0.8060594485715893,0.1394395687325591,0.28775017162676814,0.9985417439541006,0.3219171434106709,0.09827978681021915,0.24041612675235485
62,0.1969103770581133,0.9044542189604976,0.5551915238563137,0.832386389726142,0.14713744727768582,0.3158335332925455,0.9999999883715203,0.32334278237784203,0.07570932422738902,0.27204303419751813
63,0.18696555519420477,0.8997293854564218,0.5530268698868441,0.8463543196263322,0.15782291657106526,0.33759243048369303,0.9967040322498909,0.3245357176196019,0.03024320194953588,0.32203009298045204
64,0.1794272277062438,0.8916759441997891,0.5525545870367978,0.8590066394622071,0.16673095113931552,0.33609900504162415,0.9914162795115693,0.3255255767161466,0.092188580948728,0.342791001470811
65,0.17575272483766544,0.8806659534539762,0.5545174443271893,0.8761868509326227,0.17119893229821254,0.31368330077236667,0.9877209967749898,0.32635177360349615,0.20488983649899853,0.3191595866856674
66,0.1732133626483329,0.870212319265829,0.5551904808398306,0.8916029490448196,0.17469693698177605,0.26582537817666385,0.9848792510427081,0.3270556493699189,0.017334966562273818,0.2883357292917587
67,0.17020064770606327,0.859204551344076,0.5501589817920554,0.9001138167170519,0.1780552310819201,0.2714000473306521,0.9807339365494337,0.32771307671896865,0.11310638316095843,0.32648217310504907
68,0.16805687100447583,0.8484028226588632,0.5452423516870699,0.9076554055644379,0.1808630072611374,0.24411655465141635,0.9755028360084892,0.3283317629967104,0.026071437372414605,0.2948212186349758
69,0.16720092217485166,0.8355974494865241,0.5424133751713531,0.917501670809423,0.18293710674622593,0.2379156874737318,0.9716918614513547,0.3289252973264555,0.043582295604850496,0.2799968940213803
70,0.1677352343515013,0.821791553216021,0.5404991199558041,0.9283259691896809,0.18331858529359737,0.22547557765762974,0.9696456602663587,0.3295147916890999,0.04106984208246608,0.26882627447830154
71,0.16913226948485444,0.8061292104680714,0.5414472676487586,0.9401822100487565,0.18358393109802484,0.23599865386194768,0.9690477261714352,0.33012700285551955,0.09622268889929186,0.28300687498888866
72,0.17193121332535138,0.786896166423389,0.546361570705017,0.9567377226505493,0.18313668776341144,0.26082029425376246,0.9711121618396777,0.33077650444700946,0.08819545649867887,0.30370454842855066
73,0.17572574340226413,0.7648395119190324,0.5532809919187279,0.9770950511394957,0.18288718864143277,0.2862095469715046,0.9758432087774682,0.3314950702005138,0.03630303375545353,0.33370136000598577
74,0.17977468346316477,0.7424332140096509,0.5567062248054255,0.9931742388330361,0.1801314595865551,0.27953262056037936,0.9805956227388777,0.33234185959284407,0.07165769970169075,0.36602248682590965
75,0.18258697356308068,0.7207726062188571,0.5556151547661876,0.9999999435184569,0.17589202512137275,0.2720257196894383,0.9831633974808642,0.3333781757050831,0.06140809606767475,0.4025583756026094
76,0.18260486285055313,0.7017048779371454,0.545127370547288,0.9916563901144997,0.17115198779544666,0.29579437888899973,0.980998039289345,0.3347216586038394,0.012094262504356164,0.47484359427022416
77,0.18146884528357218,0.6829466912286912,0.5294108491237736,0.9695530028428883,0.16485273953716226,0.3340985702121294,0.9736223448633403,0.33644869981065234,0.029056289202660672,0.5580725996664425
78,0.18013659303374774,0.6618566807635398,0.5196289003382346,0.9455987639393258,0.1598107806201459,0.3293301149402084,0.965824330369479,0.3385994915178243,0.08407387062783728,0.5605609818249273
79,0.18064261094121398,0.6392545416039864,0.5164812386547902,0.9290943216140168,0.15284411821515093,0.2779280361883354,0.961678698142341,0.34111729934741786,0.09248241835592262,0.4767336949051854
80,0.18262668529724269,0.6174994632364824,0.5147584870831463,0.9167844154564175,0.144166446468325,0.23214868060358135,0.9606097732728308,0.3439517813037217,0.1163184417613967,0.4016958115070857
81,0.18513472250057475,0.5999049929636419,0.5080050675525581,0.901544644461869,0.13348730368940598,0.18823540618373064,0.9584595752858761,0.34707614208595733,0.03673292699838447,0.3374305783840599
82,0.18787813652092375,0.5848211863535293,0.49504704631188384,0.884346098505599,0.1206901428441524,0.18254533662507394,0.9537291633230396,0.3504564220041506,0.03505092241494361,0.3330799703277692
83,0.19088980429034702,0.5733788319906842,0.47637119208949547,0.8679018780382232,0.10819121272456769,0.1807186043492772,0.9455811410567856,0.354082256785997,0.02065876390488286,0.3351235899812791
84,0.19324226443371087,0.5638485498554611,0.45434652359842864,0.8480922432625314,0.0985685437032418,0.1846661768764271,0.9332437282769416,0.35794315003988475,0.010883156424598124,0.323182749566218
85,0.1965865534889507,0.5538901060266302,0.4356927181627291,0.8269648667156938,0.08931165590904779,0.1719091520895485,0.9194565563695425,0.36202244082880736,0.015308966104261905,0.31574668783255955
86,0.201043513849384,0.5417285269433664,0.4244941950863656,0.8069510540890126,0.07876493589787341,0.14841761657023955,0.9077503773513602,0.3662861694395169,0.04259018788695041,0.3062652649953184
87,0.2066158316871688,0.5270186918538051,0.4196514570893528,0.7920872936572393,0.0663320666518253,0.14484067750068486,0.9004901183828984,0.3706871259851531,0.04939200587611726,0.30079438075809134
88,0.2132755293273417,0.5107176817785499,0.4188565954204055,0.7806174835163855,0.05230178738351953,0.15505168294303145,0.8971550556683853,0.37520028249604154,0.028572295954143057,0.30478147423219404
89,0.21986264616229803,0.49361323147887187,0.42011960942790855,0.768691609226572,0.03889325001700555,0.1645417209105139,0.8957340118409273,0.3798457374205535,0.04028797335779391,0.3135112620863686
90,0.22599755606262073,0.47885762598714326,0.4174620948489348,0.7482831851471154,0.027059843375090382,0.15647528915269387,0.8923606708514481,0.38471229513030963,0.04742482817544093,0.3154454995897101
91,0.23099300198415226,0.46913972804276693,0.4034257774043566,0.7088356448629782,0.018233560067378876,0.17362415035238354,0.8801304808021749,0.38997591472571086,0.1846844417249847,0.33520483595916195
92,0.2359460272759584,0.4637561154649237,0.37203134694442047,0.6429482318441512,0.012482093864052126,0.27740045646686506,0.8510779623453123,0.39592006508879585,0.29551313907489773,0.3742733928623589
93,0.24573397382819515,0.46040250117212844,0.3221174981127729,0.5490942921817361,0.006975683173846006,0.43045609324851264,0.8008886105635429,0.40284143942660444,0.10069215070862601,0.38919048525367406
94,0.2625231971835557,0.45605492672948844,0.26687751677639454,0.44950573093549445,0.0013272738618252164,0.48078856159254096,0.7368744725692398,0.41083360540606356,0.07491243016575404,0.35431648305420727
95,0.2828240411403849,0.4494638716977912,0.22014097041135242,0.36152287855223353,0.0,0.4338776783420643,0.6736204880733943,0.4198236194607804,0.053973989108484874,0.28385037455698897
96,0.30635599706151545,0.44243589661077753,0.17875660287500753,0.28095983630810284,0.010052121845267013,0.40555897863836293,0.6181852868647807,0.4297159531322046,0.058666350326897564,0.21480231165282807
97,0.33249617046061153,0.4352760411574302,0.1420375524920132,0.20911474767960528,0.023541285198332033,0.3795244448590903,0.5697287372666283,0.44043372979567147,0.06921081904222971,0.18187724362581503
98,0.35833604190959145,0.42782453334354387,0.10924674319984827,0.16732474156511404,0.036009217020956566,0.35286368531078455,0.5264661920329927,0.4519637592767749,0.08094403248481497,0.16580702082806636
99,0.3829557884825431,0.42260014285431774,0.08006229429422967,0.17496744073921208,0.04700794527203385,0.32212247120096804,0.48755416930392714,0.46425747384849164,0.04187427978673531,0.15891553592335192
100,0.40608812520976223,0.42006550031367784,0.0529127331479934,0.18369261626472677,0.05658895019775227,0.30724786963345596,0.45169846643725475,0.4773009951709014,0.16108133641677316,0.16725819743085388
