Frame,Center of Mass distance,Symmetry,Grounding,Arm fold,Leg fold,Kinetic Energy,Potential energy,Bone length coherence,Torque,Center velocity
1,0.017489365149329666,0.5790780294908503,0.23653385176471087,0.26876871568302735,0.5109958651757074,0.08071547315487175,0.6007724956171889,0.009363597740502744,0.03005101858231314,0.08288020490191737
2,0.02003611822547569,0.5693137468933397,0.23746146770252122,0.2655718701564754,0.5082586043740291,0.08071547315487175,0.6007724956171889,0.01077092837107547,0.03005101858231314,0.08288020490191737
3,0.0212381067335759,0.5616670517808167,0.24107450146219842,0.26903232397533783,0.5063596444063053,0.07919025894435566,0.6016014087931483,0.01174529262489817,0.08882682347395789,0.07866034656793634
4,0.02189906362878486,0.5548101083053567,0.24910273276708358,0.27596296159678985,0.5040995985681819,0.11384106962562694,0.604814573864635,0.012210812663180122,0.0561174082498845,0.10868306346271908
5,0.02238551579014534,0.5478456606282962,0.25885772670342594,0.2904028717775999,0.5020939192732956,0.13913017632520203,0.6100708374941086,0.011929732044574079,0.06056851789480343,0.12586544325200946
6,0.024035584947838133,0.5390221746036234,0.2675107167910749,0.3071767870545044,0.4992759228809781,0.1588944382004858,0.6157731895761802,0.011172861710166127,0.1303545975018996,0.1402745657719358
7,0.027227893995352886,0.525937785566202,0.2740466061451124,0.32516115248008953,0.495345813298404,0.19419238704293204,0.6205810901278701,0.01019263892809989,0.15246365051355082,0.17818651751208814
8,0.03094501798232778,0.5091489021385585,0.27598090054560964,0.339710188578671,0.49432544417160135,0.22715767986983426,0.6231385080969606,0.00918348740757076,0.2220667089459002,0.21236280774578667
9,0.036695561910587565,0.48793833202417763,0.2740784107088238,0.34386969920579435,0.4934074877645286,0.29064995081906364,0.6233959722062556,0.008781145450780703,0.08518110558783679,0.25608923229030134
10,0.042118711205719105,0.46550760317406037,0.27205903431720396,0.34875365844838707,0.4944495147790546,0.3175318487728438,0.6220531903616803,0.008742810342408626,0.02449979191350286,0.2794910778719288
11,0.047837541897176025,0.44327181234021035,0.27120496183375087,0.35544973245466566,0.49497075168059596,0.3289408817012631,0.6204110520247004,0.009046657450349728,0.01236275889054183,0.2830971927225613
12,0.05374819875882217,0.42104854692899685,0.27112098365673215,0.365017622472755,0.49477372496207433,0.3327388426622732,0.6197638330930435,0.009626201851500593,0.06677953158379935,0.26984303303909346
13,0.06030388022475352,0.3985640602900562,0.26985502661981775,0.3763903680072562,0.4920294827226408,0.3161220386831839,0.619334339439866,0.010368044262115518,0.12460957723110601,0.2447918942111866
14,0.06577631522781244,0.37952128060972806,0.2692271918750845,0.39093688906161655,0.4892421534710311,0.26862205584073584,0.6192558120017582,0.011205164974663805,0.05503217798077493,0.2026570348956613
15,0.07135173341383143,0.3618319061552895,0.2681697673986645,0.403134164634106,0.48593386354556434,0.24751630391410548,0.6195774414473149,0.012205062184034506,0.059993007601474795,0.17679614725003664
16,0.07676342632772241,0.34645293123171644,0.2686972728001209,0.41015881132796245,0.4817134925342011,0.22246179870515165,0.6208033043858321,0.013480178421030792,0.03192192955574072,0.15332092467741207
17,0.08119088731744349,0.33279657721891337,0.2707115127767777,0.41417497065781916,0.4783381081273764,0.20407354310349862,0.6232748988569442,0.015106918371199403,0.0668815212277011,0.14509127928626103
18,0.08473983095276777,0.3227555239854025,0.2736812142417041,0.41599051535391207,0.47535848817697773,0.1650489716432836,0.6263606789285326,0.017173579623462845,0.006734936276134927,0.11712307945691741
19,0.0876285241499014,0.31422088024880296,0.27900798562641344,0.4180402084365736,0.47301262165986196,0.16323477580827989,0.6301552482996413,0.01965748957645914,0.006247154329346478,0.1300826796195289
20,0.09075732412900354,0.30663271528155944,0.2859755693176954,0.4155630953166067,0.46987683663136115,0.16624244703683852,0.6345790221321811,0.022670175366134415,0.006694008761314726,0.13506859108026675
21,0.09521412136751793,0.2991930527501517,0.2948261421299289,0.4129195302455712,0.46313018698077707,0.1742620952321061,0.6397877563100572,0.026210151478041985,0.03160238097117574,0.14557468633186937
22,0.09929122617665226,0.2924607681174812,0.3062653797784489,0.41210285255203666,0.4562454369244711,0.19011964198639816,0.6461862490827036,0.03030015272940979,0.07421113656687162,0.17669623045251348
23,0.10235215573945657,0.28615773972692604,0.3213077315772332,0.4108801360013297,0.4520687288917929,0.23162646201622294,0.6545830823413697,0.03496091979027748,0.03319262623461843,0.2250318143083275
24,0.10534521540079576,0.27988624873919293,0.3383258149579723,0.40947228009504194,0.4487732997516445,0.2570275650715316,0.6647836564036782,0.04027670410174451,0.025983064072691364,0.2503276321947347
25,0.108676637384936,0.275303355790615,0.35697446725040066,0.4029589328784611,0.4448150101052586,0.27408278450779816,0.6768720700447859,0.04631973032616189,0.030006533915414694,0.23008647194774032
26,0.1123251936847374,0.27010346883142194,0.3698504219776964,0.39103371938256104,0.4389582853664665,0.24993502849375615,0.6884848893696787,0.05300586707943799,0.03460913846831308,0.17276748301026093
27,0.1152928498246133,0.2637793507227666,0.3793880381231924,0.37496203892285984,0.432421063090775,0.22766705593710823,0.6960183732551466,0.06006941670665907,0.060411963980038674,0.16579374529067856
28,0.1167466832174453,0.26064723145439816,0.3869998960305939,0.36604039551230616,0.42893151731066403,0.17942389160663516,0.7003355784555478,0.06730853387097227,0.09014839814083074,0.13267106803685305
29,0.1176334903780695,0.26033138339716416,0.39274078167325427,0.36045122834959015,0.4271068838410944,0.10387854648917945,0.7031355352063436,0.07441170753797721,0.029835953957676523,0.06419528240846267
30,0.11812320442391443,0.2586340335587658,0.39796819875047845,0.35747410337306695,0.4251717793157781,0.08359352491483527,0.7045248646398489,0.0811999612938763,0.035316800191530995,0.06717993753046543
31,0.11927654826818743,0.25753131046681527,0.40372608313033764,0.3600213863065194,0.4212094633396512,0.05745303029705317,0.7056973245307525,0.0875477558951537,0.02560104917641475,0.038341654312209004
32,0.1205106852835616,0.25654795670551533,0.4091381572689905,0.3668260503297603,0.41622914930829635,0.04250267234667466,0.7079493743862549,0.09332528189444975,0.047878759310947525,0.015148750048329617
33,0.12052358739369952,0.25802721864560496,0.4108838981442726,0.37556061260621415,0.41507210605684003,0.0037407243007536346,0.7100694020991731,0.09859106508720607,0.004419237650798215,0.0007534789685924031
34,0.11906677417942421,0.25848173602097624,0.408652412834462,0.3820382650513965,0.41699371220225395,0.0,0.7096729795022797,0.1033870955842005,0.03196901079141351,0.008262016489002327
35,0.11792761824670217,0.261397901246992,0.40705757438531354,0.38745696385376327,0.42033513856455434,0.031040203962210394,0.7076559953736157,0.10761244297693785,0.02994312293674635,0.035308190762753044
36,0.11581123791148236,0.26404012834695495,0.40615495615757435,0.396409779233443,0.4265409682571471,0.0617934169072466,0.7056080850595147,0.1112169320452376,0.036361509066463134,0.054610506852321855
37,0.11174152940591334,0.26467193784320664,0.4015830390859057,0.40377981986472633,0.43565100715741395,0.09964539623812715,0.7017462225625325,0.11422386195068256,0.020182244897680352,0.08726068358136427
38,0.10460608352830013,0.26614523260643863,0.39516398845475803,0.41475871018041244,0.45220436312319545,0.13804669387024546,0.6956770690568247,0.1165835836013607,0.0394113942740286,0.08656714267009866
39,0.09484283116993528,0.26621004524450087,0.3800521037261935,0.42940950391732513,0.47549402141776137,0.1912884028181794,0.6855830317131826,0.11832795394503398,0.0077566320325813225,0.09892267071964597
40,0.08487118078934727,0.2640392559761624,0.3610335670069543,0.43942385781173093,0.5021428250593103,0.19542389209343128,0.6707387369017244,0.11953748635360015,0.017773578393967364,0.10832187518321608
41,0.07728954160631513,0.26025354235647347,0.338274163816674,0.4530523868802762,0.5257739691654062,0.20164279595501114,0.6532591651856602,0.12021728304929907,0.025912121207504916,0.1294272726023677
42,0.07241024151880476,0.2561398164088074,0.31351355301492284,0.4614134136431864,0.5454026396740365,0.20526612566888536,0.633794668298181,0.1203978306221742,0.007206964837979284,0.14627224669918767
43,0.06966806216955791,0.2507880093741872,0.29163116692393365,0.47271376665988435,0.5615517543536714,0.19437120056338425,0.6143191405724494,0.12009505675281437,0.014008917694889704,0.1657391632664228
44,0.06857046809523981,0.24461409731008463,0.27256961456906836,0.48800541746660175,0.5731358525281379,0.1940031356703202,0.5964003489873118,0.11925428319234434,0.006763469273080853,0.17423456964142164
45,0.06775802299426938,0.23679320594302322,0.2577450968042933,0.508845827001763,0.582214757212387,0.19238068429484628,0.5804644068047117,0.1178927681097615,0.023197463101605694,0.18188872160280095
46,0.0665409276875186,0.2267169926492378,0.2446723614573286,0.5366578159307619,0.5904770457362555,0.207408128576924,0.5660487262704352,0.11599570211252799,0.018793225318276777,0.19531912365022233
47,0.06527527800895726,0.21442890555971342,0.23320979653741442,0.5694018870940791,0.5986031044990746,0.2212034361932722,0.5526825570973171,0.11357432340685086,0.06462614797088331,0.2173666926904317
48,0.06469864007319737,0.20020247902498692,0.21886789573387364,0.6050664751221847,0.6073257378744663,0.2564250031236334,0.5388259666436698,0.11062525269463397,0.042011803788865626,0.2539786009136381
49,0.06553333067580588,0.18682037291188705,0.2023592519970918,0.6361720911047133,0.6149724379707018,0.2736627572640902,0.523969193056001,0.1071968202619831,0.10046855169661024,0.28112500547423774
50,0.06850478583513847,0.17788832466363713,0.18034369441385667,0.6543639582273587,0.6222737666759646,0.33139865360090826,0.5087755740418304,0.10340423823809124,0.16571688860355369,0.31875550260982466
51,0.07368375147836227,0.17751480089868166,0.15122646180200705,0.655652881334406,0.6297202931199317,0.428888450338391,0.4907628041474138,0.0994058272209293,0.11935500179464349,0.38125757506939495
52,0.08006815270951576,0.18892588368205654,0.11654861110817288,0.6434620757988536,0.6412182015825822,0.5037085118997415,0.46892902059153246,0.09536450649126565,0.008370683745402245,0.404250434576917
53,0.08630732711252018,0.20467449149368078,0.08160992178284464,0.6284135927616732,0.6552973573475255,0.511405043911909,0.4444486007756308,0.09136291510507805,0.07797862059796686,0.39902386148304625
54,0.09220090964586483,0.2227277957417732,0.9517548657913223,0.6194552146578498,0.67311736415165,0.48813454056723193,0.4189266564809816,0.08742622442125388,0.08075659884113263,0.37047789767025835
55,0.09864884185446127,0.24610894907580855,0.9857633488950767,0.6085782740323359,0.6903458833867457,0.47042577975326355,0.3935818803063838,0.08360254774737737,0.03296565475117939,0.3184269309247926
56,0.10824330018116303,0.2773955616720084,0.9797016727975632,0.5953135051149979,0.7018996958713843,0.47164028256077317,0.3681606925353772,0.0798923435879179,0.037573093781248144,0.3194979522655977
57,0.11896014704149471,0.3128588560335899,0.949657236338502,0.5768315426213021,0.7040812733924835,0.46254835391912436,0.34420538741414985,0.07632992259513267,0.08020180630319994,0.2974938079856616
58,0.13110702986103273,0.34490206896449443,0.9240349146596992,0.5560984504406526,0.69741742428869,0.42768441948516095,0.3237638411074098,0.07290681295777357,0.04366737196271992,0.28077569985244766
59,0.14057976576028738,0.3755059967239415,0.9061870942171161,0.5400096758525267,0.6856019750336834,0.39830957754519625,0.3079853782542587,0.06955652365674195,0.06278505503618505,0.28486542470258897
60,0.1518482894586415,0.4009513793176186,0.8893496610526087,0.5348741146442133,0.6750799605953969,0.368451303384716,0.29449636442739574,0.0662123942854567,0.19654075619884787,0.3233029509601217
61,0.14756631099054118,0.42413115841738624,0.8911751340999904,0.5385941834261594,0.6666328796146769,0.27831902849488616,0.28945013116955315,0.06281614463334449,0.03226714597312288,0.24444160894059633
62,0.14219307066477527,0.44631755788073146,0.893748904804636,0.5540541183130271,0.6608780765037069,0.3098356012356355,0.2924578488956555,0.05930861499690733,0.0516123835224063,0.3226423520624723
63,0.1332033961833571,0.46789202794549933,0.9000605432853406,0.5781982205471701,0.6581917401680676,0.3413744763757221,0.2955286580071742,0.05566657711608572,0.12417978006704368,0.3707034175199207
64,0.11917443145317955,0.4896077248236741,0.9121609655820507,0.6093486981690739,0.656938311478137,0.39724042708376284,0.3014223047031352,0.05185676528802505,0.20624829918780022,0.43495447507324153
65,0.10323071567311708,0.5117341395706279,0.9280022580291825,0.6494808677944608,0.6537814805998619,0.47414472489418424,0.3095782235701658,0.047856037435347804,0.3071044690114658,0.5288648060937609
66,0.08242202703023496,0.5365272730310726,0.9509477863536494,0.6894691640781432,0.6479510566055477,0.553844962048281,0.32008194070370266,0.04369854155837144,0.24421084623933786,0.6199978434300788
67,0.05902826298571755,0.5623082820944308,0.9813245150105255,0.7294109226906251,0.6401454319181379,0.618375943660687,0.3349994865221391,0.039402011708358026,0.21831295309648227,0.71531820599295
68,0.03345564455886892,0.5895038415873519,0.018472240722355215,0.7709141933180527,0.6296270523691497,0.6694886689710994,0.35487779941070036,0.03499998729508393,0.33703482899535353,0.7673898789261384
69,0.017339398279787303,0.616188310343806,0.04681496377135551,0.7985256303200593,0.6108165665211706,0.5809706338681896,0.3746124147694715,0.030609642521658962,0.6260913282024072,0.6175272690075739
70,0.007881386682457133,0.6397183665567417,0.062036839895985636,0.7920054131038291,0.592144639837184,0.44318218679842686,0.38980620982279024,0.026381038369705387,0.29440683159078623,0.3589809733077959
71,0.0009532931225714663,0.669657962394988,0.07354405777577973,0.7606966061947226,0.5724023925797789,0.5006528592369075,0.4042690508675517,0.022455951703381213,0.14945501921497367,0.22218191240189444
72,0.0026377435948466196,0.6952214691237261,0.07292028506694846,0.7177811797404694,0.5500847844477319,0.4921360879090556,0.41731599893497706,0.018899529996718612,0.3677874811919776,0.07094019836889794
73,0.007455746800750166,0.714867145200684,0.07110049298282119,0.6722559316355452,0.5282401551532243,0.4322936676524038,0.42716739763560363,0.01571447873773451,0.32791932731311046,0.03435492158004288
74,0.011491343461060493,0.7294673256884917,0.07442649092294029,0.6338895293300891,0.5078450111826495,0.36171495806725157,0.4376108165759024,0.012850780732390243,0.25631759982388364,0.07882371515455244
75,0.012583414351803511,0.7417135979971268,0.0852923486558489,0.6040944413989023,0.48996926227971055,0.30307204330902654,0.45125426948589703,0.01025925523798461,0.12577159947605546,0.13064329489231327
76,0.011122868955539862,0.75242056409091,0.10221440756831604,0.5818354360185659,0.47483667954992054,0.2724794110714227,0.46797075505703556,0.00790056975912286,0.0570869050270716,0.17677305601876767
77,0.006643857465124156,0.7638300780064621,0.12682556194040964,0.5633468912239985,0.4614324899759881,0.2613324358211434,0.4884902527380224,0.005759496866182208,0.1875442687717214,0.18663694142369466
78,0.0019228201727208045,0.7764598474568726,0.15812975935988238,0.5518652776329662,0.44809480740043,0.29784238981443145,0.5139339658063896,0.003831516811697617,0.16808103767915555,0.2374985644591138
79,0.0,0.790096371321965,0.19164489642931323,0.5417384482982077,0.4333883900773144,0.3301356825456538,0.5428337824177528,0.002165072548479571,0.1708865019613262,0.26263167306660984
80,0.0023725507016707495,0.8047031390878091,0.2222787990548588,0.5193560184762873,0.4178344525361026,0.37214427060181415,0.5731521095441562,0.000872486207205393,0.40558461363391113,0.26867148189544965
81,0.010106938568053966,0.8172590509100895,0.24705408322543024,0.47634075019905164,0.4014781366580077,0.4719285328157072,0.6026668475397848,9.938227054964954e-05,0.3487084333212476,0.30864091030253704
82,0.025162765104477153,0.8223702772029196,0.26118465513941375,0.4131252032409765,0.3823164619466123,0.5828668216531875,0.6275723745972654,0.0,0.4502229025155403,0.38506828490781775
83,0.04893674022778334,0.8206401057282774,0.2664558531633759,0.33618882352738316,0.3614613348216429,0.6999310240971713,0.6431331575848936,0.0006702852907988962,0.10452250211738286,0.534030485190874
84,0.08069011591593447,0.8144447755302396,0.262884999819986,0.25022063376977544,0.3347756575916197,0.7137011114517773,0.6467783974772828,0.002096034078294815,0.2842514718722899,0.6177397455686198
85,0.11859883067991199,0.8079235974337351,0.2497982681101848,0.1759278317699931,0.30138544522011396,0.679905430737763,0.6373112887503398,0.004205610649148531,0.2795190418756397,0.6262700894603259
86,0.15934042128572415,0.7994954671019838,0.2285888627607753,0.14044908923019572,0.26771717464121964,0.6361612996018042,0.616339496962465,0.006924161669827526,0.24227119158148697,0.6083374622049966
87,0.20123457668022346,0.7884331527597982,0.20370366814050586,0.13465666641835974,0.23588237322466182,0.5930329693520902,0.5875611380370658,0.010187439654906693,0.24506941930473483,0.5977803451009722
88,0.2414884481719446,0.774968719735897,0.17661094833523933,0.12684777129861927,0.2089195279945052,0.5438093373789954,0.5538321600945898,0.01393892865091145,0.26168199816835147,0.5680745804924782
89,0.27881305867846706,0.7601016773368638,0.15228974385193803,0.11905563015845133,0.1855384970747346,0.48785881092406824,0.518779825384265,0.01812249642384046,0.4090252879090946,0.5523610641072412
90,0.3093842241481593,0.745710177527923,0.13536597770699033,0.1088707624969283,0.16426222545782418,0.3766961219948615,0.4890014890275735,0.02268451305624642,0.16794760614397308,0.4678255127358742
91,0.3348695684582387,0.731517102922611,0.12548684147777142,0.12568808409361795,0.14432201549300677,0.31263125390285923,0.46787332640751617,0.027564504009325606,0.07270358968736285,0.41487887486693603
92,0.3553715900561895,0.7187218054229503,0.12154342879805911,0.1592983634184501,0.12564828553887003,0.26841488989775214,0.4542711761673204,0.0327250780502495,0.016240143747607468,0.37053977698813645
93,0.37086567794470315,0.7076567372579934,0.12346324115751413,0.18805604338181314,0.10864467725651143,0.2524263583640813,0.4477142927642693,0.038137844703706604,0.08164391893690724,0.350346937537922
94,0.3842706847572997,0.697514045028729,0.12919102084738174,0.2094628066677658,0.1024860993535145,0.263636154712692,0.4468584825677434,0.043764910936742306,0.14060958760867173,0.34546013183040336
95,0.39831410904803044,0.6866189284918675,0.13828378519151555,0.2197576503356649,0.09702996371413204,0.2935728403487216,0.4505238267346345,0.049585537219671516,0.09378345774818184,0.35404991225402804
96,0.41010359760939635,0.6763215427425433,0.15290996963811565,0.22215501007819802,0.09128022192792314,0.3102179696346464,0.45966113110562945,0.05561748495499257,0.09865838246054746,0.3605578308638594
97,0.4220030134160566,0.6647700261102054,0.1689845200816673,0.22296946075931265,0.08754215912017914,0.33663470142712104,0.4729420811604691,0.06186717150568731,0.06215018740821936,0.3810702528024757
98,0.4361029674961873,0.6489974267843247,0.18381863367038495,0.22517099473809654,0.08271753236836772,0.36131410574172923,0.48653409249986723,0.06840169334888438,0.12959280013477506,0.4110017055858736
99,0.4543072900411363,0.6272606947982259,0.1910936663833852,0.23765263136845785,0.07280293781476907,0.346635869241145,0.4949663909855665,0.07529884955450947,0.4041059575525637,0.42148229255069475
