Frame,Center of Mass distance,Symmetry,Grounding,Arm fold,Leg fold,Kinetic Energy,Potential energy,Bone length coherence,Torque,Center velocity
1,0.052860037992743386,0.9278944490116514,0.9314049498089105,0.34678190626911704,0.42991792993484157,0.03809933265768122,0.7161550334883744,0.0,0.05347126617880797,0.04191044747180261
2,0.05508979988893854,0.9295246017627459,0.9253295035238859,0.34659160621549273,0.42627930499181693,0.03809933265768122,0.7161550334883744,0.001826940469956954,0.05347126617880797,0.04191044747180261
3,0.05848779862517912,0.9309780924701431,0.9168461049056992,0.3465771668726636,0.4201501623326297,0.05209943506014504,0.7229266181884475,0.003956368791308308,0.0408501184827409,0.046924904604664294
4,0.06350201718371325,0.93192915493614,0.906096433590279,0.34757593053521785,0.41074374325606416,0.06729864400248486,0.7315679627159289,0.006516056134774405,0.02401662565273901,0.04553411817466599
5,0.0699319933576547,0.9323937370728623,0.893544434590327,0.350563733005036,0.39861950517641864,0.07902032636724025,0.7414930806512595,0.009491154586957788,0.06832652432753661,0.04261449109216817
6,0.07736262261137311,0.9314680105525701,0.8829250148360791,0.35337181958786673,0.38423203667190997,0.07554358959201696,0.7507499037116561,0.012800409548720111,0.05096491669537657,0.0369883840489132
7,0.08470600193033938,0.931278564585745,0.12469403460213395,0.35606786216684627,0.3705395423979832,0.08055367350929214,0.7594509645530156,0.016376939039283882,0.022175254626912267,0.0633843261994103
8,0.0897294774801398,0.9324974686781413,0.1303766289461552,0.3569919174450294,0.36131278198711164,0.07819422794050357,0.7678019304970242,0.020137731026025778,0.04511354437525684,0.08021780105105256
9,0.09296874141120738,0.9341356050148432,0.13340730055500577,0.35564392076686147,0.3551540969680729,0.07448493403377734,0.7742175130880901,0.024067724654377485,0.06552026717717312,0.07905332128406076
10,0.09524630537146238,0.9377884517162317,0.13589397522860894,0.353602491650449,0.35071997650520803,0.08541889585174775,0.7794578776920502,0.028136743313944945,0.12859563580503905,0.10071379501534372
11,0.09768922264075687,0.9437571764231995,0.14127820501702215,0.3521654895066157,0.34665780122464807,0.10202250936183704,0.7856289935520739,0.03227601182662349,0.09788211156020334,0.1194638088131529
12,0.10104377013325908,0.951517854732623,0.1480594378025542,0.3521850540516884,0.34164297791253934,0.12111005381994208,0.7935304093453658,0.03646429556656664,0.10894531013378397,0.14327826875026503
13,0.10544150428528137,0.9604304698535092,0.15619685224892335,0.3516408292787203,0.3352406044823406,0.14238441406908411,0.8028966239809496,0.04070883079836428,0.039364478926520494,0.16652164797785454
14,0.11168882378643154,0.9687619149535658,0.16446102018926123,0.34978697691714444,0.3255298590722575,0.15309668822600841,0.8135871379538455,0.04506682247233243,0.115890004314158,0.17714193494168887
15,0.11852826056250268,0.9769385060079451,0.17167477078191634,0.3477269078912389,0.31456688270904637,0.18182866957187857,0.8255106586080612,0.04963145457326559,0.03466166277272049,0.22345175834517433
16,0.12571329068497328,0.9849985391137135,0.17695625078185592,0.34397675282282414,0.303129470883263,0.2054526427643117,0.8386945536999175,0.05454676998675897,0.30218410584069294,0.2610414570162489
17,0.13218860444333533,0.9905268116459603,0.17394948790834985,0.33736657454733543,0.2888227930006157,0.1920658376540846,0.8501061541375551,0.05988846714070176,0.03525652364285615,0.22081987489752417
18,0.14156508383043565,0.9950223730472977,0.17023139069472146,0.3389706684124992,0.2700011894965526,0.20480903267326558,0.8598142524981759,0.06556436569302188,0.028111428930480433,0.23526702042879116
19,0.15468242185724512,0.9976960839405579,0.16885518616052406,0.3514194151826026,0.24549933350073017,0.19077989661363473,0.8700842390132916,0.07148466138349306,0.0715192358232568,0.21738400633171906
20,0.1685594902189744,0.9992279333468029,0.1677788657043399,0.3681295489437572,0.22091962498145334,0.16937732704803765,0.8799063452872012,0.0775607862200081,0.11928408696171239,0.19094690484416238
21,0.18104195324514225,0.9999999966919318,0.16322579092904374,0.3821316553216347,0.19937849350511608,0.1558714657744538,0.8878930179483084,0.08377804702665269,0.061497691628402185,0.15423035357093007
22,0.19209548360832981,0.9999296167836998,0.1552053876220557,0.3888381508588977,0.18046132911901028,0.15484036473755347,0.8929592562739502,0.09015723847627047,0.02985368791314787,0.13584261167357237
23,0.2023353176487624,0.9992001148648383,0.14902821247767326,0.39445857775115256,0.16425482329580474,0.1401368916305752,0.896642582998973,0.0966901509807013,0.017446178166858627,0.1192785146251891
24,0.21200599311450516,0.9979255747569277,0.1456366226408663,0.4010227516733124,0.15013100191666878,0.13055363936125713,0.9010641438534484,0.1034117065287333,0.038671959233992956,0.11729582596159115
25,0.2198104530743794,0.9960772383629315,0.143496802698792,0.4060541525200864,0.13929204937402484,0.12405837088672075,0.9056751922337337,0.11035931274091694,0.016644015035155054,0.11806652475047728
26,0.2269710846174854,0.9934264691494523,0.1410430984957105,0.4102988144136015,0.1295542007817069,0.12511622849122217,0.9098215158609668,0.11755626427117337,0.03674611566570137,0.1192689853644976
27,0.23548454274149014,0.988812133305216,0.1370767967942047,0.410741537598775,0.11822331103537019,0.1370192343831029,0.9135289477530898,0.12504997761630005,0.03602830036894897,0.12446689657919519
28,0.24481114799924492,0.9830859814877717,0.13206359955475758,0.40962557781908904,0.10615198249292937,0.14633276603407364,0.9164828811070105,0.13287379215551615,0.016001506214636193,0.12461679482828196
29,0.25331978050453136,0.9766095318056829,0.1277595839986919,0.40669196470205277,0.09558211581178437,0.1474147821336658,0.9188747122067263,0.14106088456047242,0.020471723827282764,0.12218841135418322
30,0.2610631568795961,0.9695728681789432,0.12314075030847411,0.4040787806333748,0.08662747749192029,0.1532612334972481,0.9208348403169492,0.1496673718696398,0.03643758850297763,0.13433304697298057
31,0.26887713754461157,0.9618640810948811,0.1172664349734818,0.39937621844923615,0.07800403410571546,0.15300244455181558,0.921097900058735,0.15870484706739393,0.086923582208675,0.12180699319087211
32,0.2762989931060776,0.9534425940395844,0.10850230459093099,0.3898157381380848,0.06932521547774914,0.14391806719928177,0.9180815319720625,0.1681160955124093,0.10664971193334474,0.09536934142413721
33,0.2824075493464609,0.9453593549356452,0.10306375979071047,0.3824537928181186,0.06244576288416484,0.11539269585029273,0.9135259184841734,0.17774526121154852,0.06915490081213264,0.07865474646929682
34,0.28723031313864034,0.9379530701349157,0.09728557799038585,0.378318059754967,0.05711990761693904,0.1020782724908441,0.9094070605263237,0.18748387622730034,0.11251781396205698,0.07227135884082071
35,0.28987699064866784,0.9320973560873074,0.09231821176265016,0.3763352666913845,0.05447349141620869,0.07509462216462363,0.9053645932713202,0.19716545048224604,0.10229511994874466,0.04971567112148386
36,0.29086689856104964,0.9273785523761318,0.08845298204362906,0.3759869905784415,0.05337192549164863,0.05395443772727844,0.9014798579374472,0.20666850552254654,0.07275202516718346,0.038469620871210586
37,0.29115396707920266,0.9240362632550586,0.08572591417701285,0.3827458236078153,0.05259072749810092,0.03508445419067168,0.898480459528861,0.21588351155171545,0.05316400959239029,0.03232092288804944
38,0.2913237122820502,0.9212077084395304,0.08296633486226822,0.3910070830995533,0.05066707750222397,0.02352055296222395,0.8962251039763781,0.22471084127348176,0.0372087336431937,0.01773143579731681
39,0.29081550295245717,0.9189747059590662,0.08377280555047976,0.40246106775937307,0.048707192280152176,0.024693337204260257,0.8955376245765687,0.2330419826313893,0.04833131468740398,0.01806588966903504
40,0.2890079552837702,0.9178597542244146,0.08633383393760906,0.4134593358269112,0.04837238482894205,0.034435215468763485,0.8969473824335696,0.24082873070901986,0.0897626521945596,0.024925959310259566
41,0.28435185386583206,0.9188142332764535,0.09119539550370218,0.4273946904642818,0.05154183748239843,0.05970923454426725,0.899701232537253,0.24805545608353663,0.05421533785990492,0.03858377123971685
42,0.27960544818941474,0.9201853779390631,0.0966207948522818,0.43882677687521626,0.053928974158216646,0.07389907943983029,0.9030888449659998,0.25471300169033967,0.04495540143995147,0.042694113798602794
43,0.2739896652855578,0.9221376119846523,0.10396691009195402,0.4494399896400652,0.05778158318552776,0.09012829808648684,0.9069041800561802,0.2607835575247246,0.05266718784846646,0.04931515593233447
44,0.26782314021893383,0.9242613352559838,0.11172725347063228,0.4571296176537414,0.0637329885887221,0.08638033966374507,0.9113398707104481,0.26629368096565637,0.020892296375600573,0.0486870006846517
45,0.26092826913864586,0.9266437936551255,0.12053962077536957,0.46695794353198583,0.07104418057659363,0.09425076307285042,0.9162177987021506,0.27129006999329475,0.020458100435936127,0.053927945573181146
46,0.2530001032053704,0.9291734788381905,0.12693210907889987,0.4771318567768235,0.07936806740416927,0.09633858682657556,0.9206675855685079,0.27585384023863146,0.11620966596466036,0.06893372673584242
47,0.24637689058158996,0.9311706835583736,0.12994175271363242,0.486335016100793,0.08665302469130191,0.07225570144149665,0.9236117754587553,0.2800385234926089,0.09514035783223837,0.066933491448691
48,0.23860206364195535,0.9333118422155829,0.13266158702046554,0.4966492093840331,0.09450873456473875,0.0926295000017638,0.925552852790784,0.28386467103074453,0.029035407839992134,0.07550797074722311
49,0.23199325706909305,0.9346387265438338,0.13645586612301377,0.508860427215665,0.10070720614561676,0.09848307481958375,0.9276596579351042,0.2873311913552318,0.08519539979807851,0.07418418539285149
50,0.22548174093986229,0.9351729623240099,0.140912593680804,0.525357156391605,0.10627587127694982,0.11674031040150211,0.9303540084691394,0.29047432362389264,0.015607832330909571,0.08911952000046351
51,0.2198423223262504,0.9352737687143892,0.14516949612812866,0.5436040514675715,0.1108270760723357,0.11714050811355883,0.9331050629853385,0.29331712952735606,0.03235508744448267,0.08805317739760585
52,0.21443638658664183,0.9344712314562242,0.15052991215134753,0.5631480408248629,0.1155957367738812,0.12531860646343626,0.9360828436240388,0.2958871650717844,0.06327846608850674,0.09595138162301305
53,0.20900932624389318,0.9329587595282509,0.15604535111661558,0.5852148112909024,0.12049391401903368,0.14031322489779324,0.9392639273381973,0.2982095570625002,0.0212546575963557,0.11093414840001602
54,0.20400453602869884,0.9306971919738581,0.16055781823846804,0.6080690342809069,0.12503258332352749,0.1387589401790207,0.9419901223915084,0.30033411103804913,0.045629111371105445,0.11886447487168307
55,0.198631338075719,0.927817686654922,0.16203463573275692,0.6294517976650608,0.12947953998154257,0.14975890222872207,0.9432664876971665,0.30229371934880667,0.10063243402340516,0.1414107850426576
56,0.19387150593333177,0.9247890759407207,0.15789741941738072,0.6493533785207392,0.13197209634745985,0.13329497067627985,0.9421438202781556,0.30414744776725416,0.016428293502724428,0.15589237498404698
57,0.18892103257232634,0.9217311237823895,0.1487018950411525,0.6640747965098829,0.13346711139481218,0.14113412624641006,0.9382696695837214,0.3059566311163483,0.015489311182363453,0.18569832773566902
58,0.18458923473663216,0.9172722594541282,0.13985801347486532,0.6772826651252121,0.13448840375321802,0.1438975517537523,0.9332837187824768,0.30774097593844535,0.02059663949676858,0.19088493125223924
59,0.18011400901088157,0.9119572762019639,0.13389460822468782,0.6913728767492712,0.13722120543937635,0.1445994655200228,0.9295172335793362,0.3095202266828436,0.033109847871357276,0.19757152020051208
60,0.174912984926235,0.9062677153921272,0.13055309139964044,0.7058792558823112,0.1426218897584104,0.14188915179117212,0.9272159283130201,0.3113116852702769,0.08319835994615413,0.19244968694262804
61,0.16963521602477558,0.9008242570944359,0.1300684666367051,0.7136059952322147,0.15014434868773988,0.12616607701297752,0.9262181526285417,0.31304781084937255,0.02491866790826125,0.1611261435183654
62,0.16500907055755776,0.8940135076013437,0.1307057559162898,0.7311633473622234,0.15648349466210842,0.1342411099981169,0.9258327801259192,0.31486818338055345,0.11967793329497142,0.17737938711797707
63,0.16088041023188113,0.8889005074327198,0.13045281874925438,0.7439598535356331,0.16304262724918595,0.10656199078070822,0.925173266093088,0.31665593715437884,0.05536365806922803,0.1263290619509674
64,0.15748765803836912,0.8846218980789767,0.12801943024416343,0.7517228062223706,0.1678411676424358,0.0953552771657153,0.9234732291646025,0.31840989603418557,0.10403862489176266,0.11441352302858177
65,0.15503763099876675,0.8811310222057067,0.1256041652094265,0.7573429073194461,0.17121730646354819,0.07454358561721972,0.9210305748563531,0.32011631469031393,0.014841771696875023,0.09064602930512233
66,0.1532138743350804,0.8781949146571397,0.12213837202849803,0.7615356026093097,0.17323632167000702,0.07496825946656631,0.9183149043499396,0.3217386031154741,0.0783707248305446,0.08122623504082586
67,0.15265000135862827,0.8760203548916523,0.11887839499168479,0.7664908899445871,0.17309095890646484,0.0588270430154291,0.9152111792460832,0.32324149004991676,0.13122747933634457,0.05587053665085454
68,0.15302485873946445,0.8713635681430333,0.11956661201438189,0.7732638428991538,0.17271001593617774,0.08881267207619471,0.9139537241836376,0.32457547951585264,0.07719462840580327,0.06709016200276682
69,0.15327231137283212,0.8656712960179048,0.1222085866263059,0.780678298941804,0.17390073010020604,0.10864634992311194,0.9152587874814218,0.3257188543313005,0.054837538726779,0.07193155025573943
70,0.15354397026604508,0.8587234204984409,0.1264878466298532,0.7871302813324886,0.1763062034039683,0.12302346663331187,0.9177033158001986,0.32666341652596936,0.014280303422930365,0.07399734709335642
71,0.15240925282366116,0.8532701213538519,0.1288609528320245,0.7899322952538307,0.18154621867211437,0.12699224521823316,0.9191436823637543,0.32743503064275553,0.022547341173750835,0.07324991147699124
72,0.15153009049175137,0.8474708983103098,0.133358723323114,0.7927395073725272,0.18774250846940202,0.12725656339943442,0.9192152101992794,0.32804506020710555,0.02370983114499928,0.060526157612349335
73,0.15129563955917014,0.8400056287339968,0.14008291070501686,0.7978036956198145,0.19427646478936647,0.13644369202783208,0.9199148540529835,0.32850831821136,0.0804820497525358,0.06437299715129541
74,0.15172506858450274,0.8324611067197986,0.14657041664394846,0.8025307023751896,0.199791905974868,0.12230239297813524,0.9211808194346026,0.3288487475427851,0.07174147661222802,0.06654097466531407
75,0.15284127113298132,0.8248575454447143,0.15084446911758623,0.8054638554612051,0.2029900559653678,0.10533312993868706,0.9221930377637947,0.3290860543854841,0.11307491192680437,0.06942189240240783
76,0.15345379960387448,0.818770689503248,0.15026443892446906,0.8044584688057304,0.20421477901806548,0.07821443514910238,0.9221977542406604,0.32925744783205796,0.044270656278449255,0.08358387172913698
77,0.15418432608559773,0.8129180084997284,0.14769115938794772,0.8029249008275346,0.20399491282997317,0.06877641074493006,0.9213743668047072,0.32937031078098045,0.017932918404893496,0.08101796945126113
78,0.1546238942082088,0.8075635104795456,0.14321301606125897,0.8027038248578549,0.20359058718577372,0.06860336635854482,0.9203081032550459,0.32943877105233216,0.030527955557355733,0.08555073286811322
79,0.15459148869572809,0.8024197193209468,0.13866620931588447,0.8029226256647307,0.203966914560221,0.06497684894510669,0.9192629339779221,0.3294789348842918,0.02367602196642638,0.08473622736067897
80,0.15507309509070563,0.7961942555519222,0.1358434036235603,0.8059013395672013,0.20449631116989134,0.06992028271839958,0.9191043138072749,0.32948775981702466,0.057559845359947716,0.0812660751602795
81,0.15620927873135915,0.7875315958768825,0.1379015650647124,0.8140070772882539,0.20648997817638198,0.08461178186811157,0.9212492568511721,0.3294565611806058,0.11801834601508193,0.08530502740590579
82,0.1587621626064222,0.7750076233455907,0.14905186795928363,0.8299522504455985,0.21058952705283382,0.11872268880635259,0.927963231179681,0.3293582621936573,0.23535460015145815,0.08702336409312857
83,0.1649303742345314,0.7569523471960461,0.16775661103244674,0.8607250994317428,0.2140864972413408,0.174395577314424,0.9404712615364189,0.3291516726620481,0.1410039529985314,0.0994530320502333
84,0.174622444205993,0.7334988587324149,0.18696070715602495,0.9037512321950089,0.21326448703708623,0.20648391052594248,0.9579239339483757,0.3288209710744258,0.09483390373628833,0.13131227924638322
85,0.18682177770955563,0.7071966042313822,0.2075574257785382,0.9531756223693512,0.21245438037246453,0.23007268062220557,0.9761830106294987,0.3283877858751942,0.14193815657688813,0.14531618442312066
86,0.19608887569657488,0.681691031121461,0.2226952918170195,0.9949977090774501,0.2157923509990853,0.20549425008282998,0.9911652759317056,0.32793101249970286,0.019353396644772012,0.14842870360625224
87,0.20029290844690753,0.6596955459371098,0.2245456150412724,0.99999994916036,0.2194451582661627,0.19191233082883632,0.9999999892569812,0.32756543975034086,0.11332012548341724,0.1874630633947882
88,0.19514616778159147,0.6479894004238759,0.20411503086839636,0.9156539487306228,0.21661567280181218,0.25525255894515586,0.9989326112789034,0.32749418054696816,0.7038941393733016,0.3069749347792053
89,0.1805814558256959,0.6464091423873014,0.15068882886955998,0.7296498258483061,0.20666884063800292,0.5031837570402768,0.9794137784551337,0.328046429586774,0.8685623338027577,0.5321884882668698
90,0.1685431992744678,0.6515800052463014,0.05361175784421534,0.5123923626725784,0.18376024188951234,0.7941030579220757,0.9281181299061031,0.3297357530561598,0.11148253766014238,0.8636192018054608
91,0.17696953384216316,0.6452922736020722,0.05111925042054634,0.3539779333862584,0.16264533724884048,0.8169481298376209,0.8449290875479403,0.3329556210335486,0.715403512912917,0.9270404926619585
92,0.1937550641617601,0.6251814724617114,0.12187073031652054,0.28027751744103335,0.1509822998227733,0.5902784550647132,0.7575803770557749,0.3378035354190883,0.7049506081729165,0.7324393008464015
93,0.21060135162031673,0.5929184752088779,0.15824106890633605,0.25265859438011945,0.1388502096453413,0.3937350873415101,0.6922899463896216,0.3441803962830478,0.22253298915857259,0.6583872474905799
94,0.2254498474462605,0.5584208723960831,0.1729270788408342,0.245890545531159,0.11904147975666349,0.3006476361012742,0.6514205726915214,0.3517937461077708,0.05419817799964169,0.5906617771769543
95,0.24334828166729025,0.5273282320091568,0.1822036206694699,0.23078827786421358,0.10066080133515302,0.25662384793845366,0.6253484940734451,0.36037444569910615,0.022558985534929736,0.506106434372229
96,0.2710444524185814,0.5018313181075137,0.20682748124604158,0.18981768253868683,0.08895449837033606,0.27745662839565577,0.5966385549904023,0.370034901487137,0.126362024730942,0.4345803806371396
97,0.3055053635702249,0.4812362851970459,0.24268460114349455,0.12765134723097868,0.07146515606672602,0.3126612998850319,0.5564917492904354,0.3809019930998241,0.08221238924660154,0.3395424700265813
98,0.34152951786841923,0.46234320614935986,0.2812200059070128,0.05800507299661414,0.05490771428320199,0.32350644401859635,0.5099019192113861,0.3931017794757605,0.04725273049162608,0.2721656972271718
99,0.3770447338679365,0.4468172764466443,0.31612280242055457,0.05302265169590622,0.044799484381507,0.30151575484390347,0.4630488829341876,0.40661312052104054,0.1778175463367881,0.2698548160901261
