Frame,Center of Mass distance,Symmetry,Grounding,Arm fold,Leg fold,Kinetic Energy,Potential energy,Bone length coherence,Torque,Center velocity
1,0.1349798542088877,0.30288638334725415,0.9779343432358508,0.4928352507911897,0.6696027007913125,0.04016163423885519,0.33730461087047686,0.05820477841535055,0.011132675770352932,0.05813984511286204
2,0.13255304016816222,0.30962744662068964,0.9750930031952662,0.4981581677919671,0.6680853992373439,0.04016163423885519,0.33730461087047686,0.05845875173302456,0.011132675770352932,0.05813984511286204
3,0.1304460742689013,0.3166618067630737,0.9723707658014166,0.5027465933637867,0.6667145868668305,0.04224625546658972,0.3396012691800376,0.058668031120365616,0.05539243206929801,0.06462588179058266
4,0.12812694183840345,0.3262139440216741,0.9699381346130462,0.509258407174654,0.6651193791945728,0.06837146767434603,0.34188280141391725,0.05877681100794489,0.048420830063256697,0.09601906669799916
5,0.12963633017343104,0.33577808976299006,0.9723073297025415,0.5143327342282202,0.6626227510145513,0.06709865661044273,0.34233664661607016,0.05883019158937077,0.022889907511691017,0.09036480839925846
6,0.13258272202093022,0.3466393149606581,0.9757960409212237,0.5196811861739761,0.657914262757213,0.08150770738418373,0.34091104921689536,0.05875937519101145,0.014439028889173524,0.08564190616784692
7,0.1360527589660797,0.35723409450722365,0.979978314060508,0.5244756615694359,0.6526097796922147,0.08330156693948704,0.3390430285521259,0.058495391826512026,0.08431269735016525,0.07385743921131112
8,0.13990475016638027,0.36874523800432124,0.9862633933303707,0.5264812402728096,0.6483843949895766,0.11238351397509098,0.335907108505858,0.05822218941104724,0.05105087626067064,0.10423261781945804
9,0.14498549573735034,0.3792096295932316,0.9942447941030056,0.5271327084293695,0.6451406915889929,0.13039218756246662,0.33072641539659486,0.05791738806912226,0.025470373524172286,0.13308557192729198
10,0.14861980077428008,0.3897741834964792,0.9999999899936479,0.5324547294633329,0.6415529159260911,0.13925412702419002,0.32516581517987925,0.05725827763951669,0.02136703140197729,0.1542113575747168
11,0.1486639289970493,0.4001439403793029,0.9984973892961821,0.5414074719238186,0.6394033664851537,0.1449910400358053,0.32210499980221163,0.056048625829436524,0.04658564818127677,0.16946995406705517
12,0.1464115101184526,0.41068965238573446,0.9987948259903313,0.5526329147499385,0.6388433554271974,0.16365511237854233,0.3215583789964006,0.054327531422405276,0.0875203579875305,0.19551436222790736
13,0.1414541942550278,0.42222954268828283,0.9982146690457201,0.5645830550655594,0.6390622581492583,0.19600776398468867,0.3226238589386874,0.052094458301026866,0.08088912512194377,0.23174039963089588
14,0.1350805253987669,0.4348077525628474,0.9938669806418859,0.5804968317190147,0.639358848917664,0.2271531261440545,0.3252016352073296,0.04930544633729185,0.13814339498944714,0.26263984101350457
15,0.12806024680157604,0.44864828661209244,0.9888168334198167,0.6002098908353615,0.6391877254147739,0.27541614082803995,0.3284821868394513,0.04595571071037879,0.159131220497837,0.318605071314395
16,0.11904674762612012,0.4640921316114095,0.9809074609554147,0.6228548474607918,0.6372665582217063,0.32495030147196874,0.3327717206648167,0.04209777450184671,0.24937809676656328,0.37176429266362565
17,0.10635433194358455,0.48142430057140084,0.9668331478080207,0.6499249378668166,0.6336340112081482,0.39764420476265405,0.3398970291620914,0.03774523227402602,0.2540659553591125,0.4550448855875272
18,0.08969163191521695,0.5005174213914426,0.05420971134158054,0.680779678912232,0.6280131063761721,0.4695506289988048,0.3518153760812392,0.03294573556536025,0.45098068297486377,0.5407224054600173
19,0.06920011116944126,0.5223522570787397,0.08338288243020822,0.71848051452441,0.6220727633713933,0.5899076897241367,0.3674191669263039,0.027738426905500914,0.07485916899385871,0.6949843842392167
20,0.050108530837666275,0.5405278463410209,0.11553017670970767,0.7610778643948117,0.6145748615375297,0.5837022204261568,0.3852839663783933,0.02220451789862095,0.27450543572976865,0.6864231113480939
21,0.03783478689709911,0.5585336405509772,0.13635178124028585,0.7870851077224366,0.6050995297162984,0.5068639486518819,0.4006247869396996,0.01677840772480383,0.3887743511208746,0.5778559328074168
22,0.02994555247924039,0.576836399746719,0.14759359030707303,0.7778241107695352,0.5930221417455604,0.41072774964901865,0.4117815768443765,0.011897064481759305,0.10152917480062175,0.3217230496267183
23,0.026975246769690327,0.5977282262914185,0.15102480684824457,0.7444891632171708,0.5765991410772625,0.43931643206787924,0.4222248921186704,0.00791163522938856,0.18800661708730215,0.17526091101085856
24,0.029698038673300998,0.6156321086008645,0.14721370496568276,0.699678873956113,0.5576802557451279,0.427823254355456,0.431500461473938,0.004915641560467893,0.28618460910535093,0.04044856589887425
25,0.034703850804065905,0.6306126214626966,0.1448804326238215,0.6593256645423536,0.5366406636976212,0.38652858673897705,0.4405486487872913,0.0028313633113267647,0.33851610741160937,0.05925989545468354
26,0.03873933482229097,0.6418376111771527,0.14938116594823656,0.6296794393046912,0.5162636520942354,0.3126747271394451,0.4512191232539893,0.0014329712988548013,0.17893970347415786,0.10619423017899855
27,0.03933013379910823,0.6524035674858479,0.1626737708570432,0.610784645619767,0.4993180916785712,0.26863315573798974,0.4651889886973926,0.0005675238035356288,0.052518580450145604,0.16304359912557168
28,0.036829494080008414,0.6639918332320196,0.18446222745657131,0.5994577502399042,0.4843143627020505,0.26985120204157703,0.48366510186450495,0.00011077459826197656,0.17653930573236984,0.21208501390257972
29,0.03312509787468537,0.6768707449127046,0.21293316824317032,0.5919512263401637,0.47009915948531455,0.30056465587873193,0.5067489586497061,0.0,0.07555376617940704,0.2638735637804278
30,0.030544772837491286,0.6905442825130274,0.24259515073153537,0.5838864704509135,0.45612349053775064,0.3140801893807672,0.5333292720615196,0.0003253926016902751,0.21613469413609168,0.26722577571012307
31,0.03088090101072506,0.7053614259423805,0.2700081681237582,0.5621530717754915,0.441241370938057,0.3684415336441569,0.5609619702074554,0.0013287232678415475,0.3862132979774062,0.2785976769489611
32,0.03555753995428795,0.7196740351734252,0.2932251709354899,0.5237112216919176,0.424864931016923,0.46225167558553093,0.5878453725584473,0.003304633915695732,0.051567037604238336,0.33128611950764403
33,0.04532638344005375,0.728726194056335,0.30540679098681217,0.4691059823955332,0.4080483425455248,0.5168857901388871,0.6095791538307456,0.006445651580834255,0.13152490754970983,0.3931420592397985
34,0.06197600088415354,0.732098421742055,0.3054138902236219,0.40122643897313887,0.38990061701703094,0.5756882286326538,0.6197040554100075,0.010766441021684881,0.34218689986066936,0.4621672937759217
35,0.08266959702827803,0.7307215798732642,0.29256998450313615,0.3341838490920607,0.37262574301455553,0.5322584571727281,0.614038250013305,0.016083930378416808,0.10539599568031553,0.45869534119276983
36,0.10693708967078817,0.7308107101394204,0.27855159688863596,0.2696773900823306,0.35339760005093696,0.5264027027000024,0.5989925186697803,0.02220826468423564,0.265832776677057,0.4789255371234248
37,0.13229982658519282,0.7285942641530211,0.2588325525847356,0.20906749701071253,0.33712289885149754,0.4670843486531202,0.5789902872364578,0.02897021520530412,0.24322491239127672,0.41742837727508864
38,0.1567119777840338,0.7263243544483825,0.23992041423977345,0.15609865591147695,0.32401242320301377,0.4111595578368046,0.5542936650491098,0.0362022789158266,0.4416740821400421,0.384603097464239
39,0.1759130715145126,0.7254042601335106,0.22755997263979696,0.12644862302091542,0.31490199380052186,0.3158364823429851,0.5322942134656591,0.04372287094161065,0.37017265883812867,0.3376125282468079
40,0.18893104184236187,0.725208447978431,0.22211644238575082,0.12380806940396052,0.30894299664513397,0.2185136751300216,0.5172529955678232,0.05136112643061762,0.23982474501775708,0.25661860455516317
41,0.1964648473017513,0.7262763276377278,0.22309983902803837,0.12023137286548617,0.30525132352520884,0.1487084125744504,0.5100200375142937,0.05900754627338491,0.11036287407943457,0.1978229360955096
42,0.20113842023497194,0.7268608090661821,0.22733965254807473,0.11943788290133225,0.30251469277074233,0.11712781771919761,0.5084094575568601,0.06656354080531408,0.09807933407580519,0.15884180426667388
43,0.20439906712668943,0.7270781351756462,0.23171816017093486,0.11912128644338808,0.30050983571187917,0.09499609405525603,0.5090031123366374,0.07399701767515696,0.04812424740057565,0.12925632816526778
44,0.20791639909464107,0.726103201866566,0.2345638724882673,0.11992407063507685,0.2987749749693588,0.08872124871119548,0.5093239415464743,0.08127838904960612,0.0498438940717501,0.12366766468334567
45,0.2109368326432403,0.7254470991566843,0.23797964133389132,0.12000837632443416,0.29686181621500907,0.07802875013752084,0.5098564081083181,0.08838087099758943,0.060815691219375,0.11453006754934829
46,0.21344429645044016,0.7254832838776761,0.2440235598340151,0.11853531934762071,0.29514111209288235,0.08927949273606527,0.5128054938786004,0.09527641435063942,0.09161180641340298,0.11372232292895607
47,0.21479559740811624,0.7258411870287935,0.24981891363931527,0.11508855411782949,0.29456525037835013,0.07414933469041596,0.5175100101168095,0.10193438314986142,0.11106711510555675,0.0960681716872324
48,0.21671819087638028,0.724934226666618,0.25339053053765115,0.10784367101646225,0.292991204855247,0.056910674692570086,0.5220088235262768,0.10833258309752034,0.05207541992394819,0.08372904370427016
49,0.22057155499128,0.7223561626307158,0.25201402508283416,0.0966403055044886,0.29062259101351895,0.05826371230132431,0.5237742922177534,0.1144736026354424,0.022252399321353644,0.09694138378644901
50,0.224588801927111,0.718682262469522,0.2505417865719817,0.08317919171006724,0.28733631833596096,0.0622114497139701,0.5239018732979036,0.12031755733854428,0.07706945137419927,0.08350906132144614
51,0.22821284191300606,0.7149939280161526,0.24832088326597596,0.06771123616894317,0.2836792019161897,0.06147123488370604,0.5247985768291318,0.1258660142719067,0.016177581471868877,0.07653609896011043
52,0.23379020083202975,0.7098396662203124,0.2416314521862327,0.05363477473625638,0.278044398044891,0.07571678577876037,0.5240953598592336,0.1311354952161059,0.02311388420319798,0.06711490762453662
53,0.23915215710644505,0.7054019576925233,0.23444454132532566,0.0390553957551277,0.2738528110934328,0.075324179098429,0.5210398020765987,0.136181792531242,0.025379990859280572,0.08136671566848495
54,0.24290062874257812,0.7027451770640712,0.22955551326312765,0.02255178663038316,0.2734758079186259,0.07036095983638894,0.5174901716986325,0.1410866356920354,0.05850939713533447,0.10520342880613585
55,0.245096766246392,0.7024980472234347,0.22801782771078438,0.01929031431927652,0.2761891950014359,0.08739365111454923,0.5145417389319321,0.14590367542175514,0.09354266375098051,0.14451643802214928
56,0.24612336205887816,0.7040970996390223,0.23126671878813815,0.04106129049558304,0.2802482467776647,0.11232387697105392,0.5137138406181859,0.1506471420417296,0.08745217126810369,0.17556393175374538
57,0.24804366547058299,0.706800129895608,0.23771599456945036,0.061969418561003776,0.28195010419382555,0.1324334863700606,0.5165323699353342,0.155326261256676,0.023223901944741727,0.19121119340223638
58,0.2528726935241251,0.708752812945629,0.24426475107258158,0.08444399992808808,0.27826778595441143,0.14629193627051987,0.52138909412623,0.1599738203181191,0.015490798146610868,0.21696922898914664
59,0.26186854289447803,0.7088263073339285,0.24816978835035552,0.1133275382065191,0.26989951612617613,0.16329885904588726,0.5247599519623376,0.16463296662253804,0.07192420720323842,0.2239348677943751
60,0.27182016395508024,0.7069229332542462,0.24830080430864704,0.15223045554685655,0.2615730415748268,0.16748760427815584,0.5244994961291006,0.16934415172554507,0.04685605277132873,0.2304355357193344
61,0.2821115999053815,0.7034521180059103,0.2435662227330953,0.19646959250684323,0.25498623132835657,0.17375380044552477,0.5193026159460015,0.174097241112665,0.16745036029304722,0.23813368090398188
62,0.2898280841478481,0.7001551578808827,0.23935296279623372,0.2380610831455764,0.2507002796628431,0.13514793941773043,0.5117844116867993,0.17887861946903866,0.12193039178068066,0.19470422503970508
63,0.29573275113007663,0.697260232169541,0.23711408288199728,0.27271928882948143,0.2471605082438061,0.09714722840538094,0.5062328792724456,0.18363006958875686,0.10488546503062088,0.1411874499985422
64,0.2998321099816403,0.6945416295931389,0.23703367564619923,0.29957351183178027,0.24361460528239254,0.06399535979495129,0.5037125065401082,0.18830538322682017,0.07674323826702976,0.09685650625288961
65,0.30279784340080884,0.6914507839318074,0.23831938399503758,0.3212390314612696,0.2398414603697484,0.0445848090626011,0.5038985720320998,0.19287208475867468,0.05237423183645337,0.05956562691725425
66,0.30514626946930706,0.6880341318354019,0.23994267171826922,0.33620088005100013,0.23622937343916117,0.03442846214300976,0.5059118140795622,0.19730324889494644,0.07719236564303088,0.04268380241510383
67,0.3067994538782038,0.6842971697685798,0.240993785329697,0.34651228060384326,0.23315749024222615,0.023124609582913448,0.5086117420719581,0.20158011716407936,0.0679834812075955,0.03131489340895262
68,0.3066100138434672,0.6815930634449711,0.24373016025951097,0.349615603996492,0.23138145295217175,0.02522537732663299,0.5127943869892083,0.20566878556097024,0.03371446082057534,0.05561131781757801
69,0.3050896270796564,0.6794260700294602,0.2454611248191616,0.34840160801107906,0.23245044274137913,0.025378643760418786,0.5177299495002411,0.2095669309687699,0.017283124091669853,0.06731075199429892
70,0.3016814600070659,0.6777302774664896,0.24694058444213385,0.3439738189894476,0.2359131453512455,0.03600770310263674,0.521970398037015,0.21328383575142024,0.031648774551165895,0.08670343873746819
71,0.29726174512773035,0.6756820089278947,0.2494314415598751,0.3356426671653144,0.2397076380413854,0.058475989125767625,0.5269313355471483,0.21679646945165665,0.05260346181784372,0.11953522874735763
72,0.2913551865153289,0.673589216370345,0.2523230551658507,0.3236518834127723,0.24449252850885292,0.08233083770689587,0.5333625877161879,0.22009361835265367,0.06272137754795935,0.14974926703180733
73,0.2839148917289724,0.6711723129142946,0.25265438843060434,0.3094605783458869,0.2524679475622954,0.09717438553635706,0.5394470660702007,0.2231704364986871,0.05312085080662458,0.1632948915290351
74,0.274966561396716,0.667876724332449,0.25011532962774286,0.29283870719888866,0.2632220383114942,0.11375518771019642,0.5434461840356491,0.22602997000065048,0.013326282626944123,0.164836529542246
75,0.26587211675452055,0.662868356734768,0.24600988363702408,0.2746384145387362,0.2744088846321915,0.12779544449001626,0.545914956136669,0.22868956232601034,0.07326962989714385,0.15935253480779762
76,0.25662750685200714,0.6563889877613407,0.24384391562701827,0.25713381325504797,0.28578941312321066,0.1274776733099939,0.5489260291927006,0.23115857895245767,0.0375380603304125,0.17505138336092751
77,0.24973002250962256,0.6469722337865172,0.24122313942877588,0.2424474533058857,0.294611660608826,0.11886423181840855,0.5527468997940291,0.23346330591402822,0.03408769404861532,0.1861814614850539
78,0.24478357438660706,0.6344796771223136,0.23986104572937075,0.23328106651351083,0.3005946801802009,0.12162203120709385,0.5570982594512727,0.23561435532237154,0.02942217018726078,0.2101100574065183
79,0.24010826106040556,0.6199020660481583,0.24161204354310914,0.22574765231738056,0.30515517596707775,0.13274281456521364,0.5636768554012737,0.23762200538183234,0.013465315434537961,0.223807698849253
80,0.2354604487948525,0.6040730136130323,0.24632247857285935,0.21946194199848576,0.3083923210968485,0.14078858941721378,0.5729473445671204,0.23951290240331574,0.05944594941540155,0.2292861063095967
81,0.23028327216485328,0.5859443057337635,0.2539460077319796,0.21426741796799592,0.3112748673441718,0.16302249543021288,0.5850364509110129,0.24131016008145506,0.12948583045961376,0.25618576166132556
82,0.22597691712338633,0.5638950643293129,0.26187325016371604,0.21159211774869516,0.31366024315662033,0.18702324971205675,0.5987813051815192,0.24304079776849807,0.09753472640643107,0.28356045290657006
83,0.22189971991560523,0.5384670299856817,0.2691395475546995,0.21320700734450057,0.3169119334871132,0.1979564045673859,0.6122774161267132,0.24475074666289154,0.2524057025256887,0.29435582850609726
84,0.2195722237911775,0.5082244756549366,0.2722753688131648,0.2207258620185608,0.3212232966540015,0.22622416437763435,0.6233228200730264,0.24650425796462735,0.3534871483317956,0.3211319595757789
85,0.22124601470915045,0.47310699861697936,0.26705627194255477,0.24087341412431124,0.32585563650015914,0.2737023993507364,0.6276984740678785,0.24838368110158088,0.25630729731173796,0.3322986293845823
86,0.22363851810178895,0.4360195101862925,0.25718647417852686,0.2699178526441859,0.33385540465488966,0.3267108772699135,0.624915308645425,0.25045553244529856,0.11255919809198991,0.36879702620849686
87,0.225253243274121,0.4009913666673452,0.24672401201619518,0.2976516104295908,0.34331415190846115,0.3083678241790222,0.6199458480463912,0.25271501073142166,0.15495840576903364,0.3427619794040678
88,0.22858650969612584,0.36625356182360685,0.23516741425799215,0.32046402218172343,0.3487369085886548,0.28517850702797143,0.6158574437231404,0.255119018452543,0.10183122957457445,0.3196361414833447
89,0.23420798262000211,0.3333333955989375,0.2193692814909984,0.34238096567319315,0.3525578714384516,0.27384988406800354,0.6104029135224844,0.2576476537346167,0.04274291163265741,0.29139423224872646
90,0.2428311727094572,0.30205600230875806,0.20169918966505318,0.36301030682568314,0.3534820395071781,0.2727644788266795,0.602030551061176,0.26028892264271025,0.10665227377313116,0.2789248481869179
91,0.25290414997203337,0.2732413490734722,0.18570479194565598,0.3793706068501722,0.3517787981334161,0.24976815495996074,0.5936002080825404,0.263025494559131,0.09966375191980932,0.25668546056107255
92,0.2623059867518517,0.2482925937241565,0.17346061939145638,0.3898822501788922,0.34938943983668813,0.22150365143611184,0.5876688343398206,0.2658455348996576,0.03923608326140787,0.240083361660119
93,0.2701685368390365,0.22708550793622728,0.16521484060252037,0.3983232602495404,0.3467470489471756,0.20267965901331747,0.584472206472246,0.26874866464576425,0.040586140017901895,0.23270927480586961
94,0.275580680057042,0.20880519772226955,0.16086054046311657,0.4015939965356986,0.34304779199882085,0.18772422111443432,0.5838256600881491,0.2717387451538328,0.004727738633036475,0.2299843216681975
95,0.2780811772319194,0.19372980167713952,0.1610856746295853,0.39915485492610364,0.33912549976631456,0.1898985267002463,0.5862123390187431,0.2748146063835142,0.01684060405804725,0.2282323010059968
96,0.27883390499109817,0.18059870660422925,0.16532169478059663,0.3892472152507422,0.33330174557237,0.20461826903441552,0.5923660117797669,0.27795822946404647,0.06501189980291096,0.24405578775999773
97,0.2785338317759116,0.16985310501501585,0.17316511746785404,0.37221379919598363,0.32610883535189666,0.23391646828420887,0.6022308591062773,0.2811644692023158,0.031907423708147885,0.2761233632144951
98,0.27855837782136,0.16199209543877574,0.17982308948319356,0.35522632614444677,0.31875253163189254,0.24655360668186338,0.6130517693989257,0.2844712487749872,0.07882523713650366,0.2771674526712282
99,0.2815259610704924,0.1550500626583242,0.17740444348665013,0.34987835677335855,0.3125020085359066,0.27758987698099563,0.6185142692027765,0.28794001495745,0.2714071555012774,0.2844038780119538
