Frame,Center of Mass distance,Symmetry,Grounding,Arm fold,Leg fold,Kinetic Energy,Potential energy,Bone length coherence,Torque,Center velocity
1,0.1315925724955161,0.7984382708836495,0.9999999898831515,0.3867699426121588,0.5398297553740847,0.08774019107942663,0.47931087197490113,0.0,0.013572312432364007,0.07310584368575344
2,0.12678117182019885,0.8064179006763094,0.9887585943147149,0.39151431211322707,0.5234956185423912,0.08774019107942663,0.47931087197490113,0.0008384107882300387,0.013572312432364007,0.07310584368575344
3,0.1234359631914972,0.8149837978932625,0.9772113974510225,0.3926821861462217,0.5026735362816077,0.10264876520338058,0.4885532698622782,0.0019339656579414094,0.08467441490895201,0.05270400408724967
4,0.1197802224740457,0.8241171457083177,0.9632091130260573,0.3953578359835114,0.48149572827393444,0.11834859773965396,0.49925945872311883,0.003214442306987454,0.04510338188375105,0.09055830953016729
5,0.11636507179452923,0.8331801131695448,0.9491246191361798,0.399574262480995,0.46363724638396964,0.11871653260228143,0.5119377916163861,0.004747077359788573,0.03700670075448291,0.11071570189485563
6,0.11262845023095765,0.8419491114958688,0.9357455255613364,0.4018793252885989,0.4502003661818384,0.12253353607606282,0.5255417916019892,0.006618194717112326,0.1132291092868553,0.11585789734451665
7,0.1074874091780467,0.8512038730806664,0.9201412622137084,0.40665538918789895,0.43940249521183733,0.1442766429967171,0.5410824888307203,0.00872659867129766,0.1773862013492286,0.14518504582201722
8,0.10068466737840061,0.8611683831927825,0.8999585446726043,0.4158392268039954,0.4304996467583664,0.18426174776753343,0.5602051557934307,0.011030792077889831,0.1245806972746033,0.20026354188122614
9,0.09354534015270818,0.8712423885633122,0.8753450252796693,0.4310244564185559,0.4204311198844128,0.2157849383299952,0.5829607000150993,0.013438297947967137,0.23781685657448576,0.24249251476667363
10,0.08713778794738375,0.8808852074817497,0.8438158480820971,0.45552540710220935,0.4066162398566477,0.27165905131509016,0.6101609157135172,0.015846483337802416,0.16318481961496886,0.308972795690773
11,0.0828790183717845,0.889078995319687,0.8082286107213236,0.48854803300993693,0.3897684486391454,0.30936956494428924,0.6420029232252427,0.0182531766414512,0.17706518340010854,0.34718655127998765
12,0.08100354872079359,0.8954792756718042,0.219484170190088,0.5261769957010827,0.36951831586476763,0.35127955040802505,0.6775394452641968,0.02070175151307673,0.13377392791316267,0.40587925982534667
13,0.08184633279673768,0.898862570158293,0.2609713571998049,0.5674394565703704,0.34669635402146176,0.3831897924102027,0.7160253770715769,0.023228377502945697,0.24019663095862182,0.44002948772097583
14,0.08522781090182875,0.8979460032848394,0.30764755133231353,0.6159697958522657,0.3223773342317242,0.43789116009249685,0.7589012539162975,0.025884305663086887,0.014464448146053872,0.49236414439444043
15,0.09469832612386034,0.8916134320155955,0.3535341413286025,0.6732298707809787,0.29200488864582813,0.4409561871161846,0.80551355573631,0.028758517908327702,0.529784556951929,0.46738495969622373
16,0.10763439216232012,0.8849939621314336,0.38235364613829537,0.7182275372735524,0.2578284807106858,0.32557642758029304,0.8459922263870832,0.031890478584679076,0.37508474905768246,0.3266707311353949
17,0.11999771937713713,0.8811153503696336,0.3983726936043445,0.7435666373497213,0.22602614504086938,0.2544663680921732,0.873896290655553,0.03528222788826654,0.25078419231636084,0.24429871211352583
18,0.13014804231607638,0.8821794574229181,0.40541819449899247,0.7532564981117402,0.20006030539713096,0.2056170417124281,0.8916631567862032,0.03887534144422999,0.08664712045242995,0.15136676065217886
19,0.13752032604509634,0.889867938847646,0.4015745031430878,0.7468586786282452,0.178669659985938,0.19678151048347803,0.9007868564676458,0.0426515448987496,0.14153708443114918,0.07489204921792053
20,0.14283395099929197,0.8973222980928107,0.39647156823841173,0.7368256746830809,0.16472845990700907,0.15863151131537265,0.9038687323380916,0.04653318331527986,0.10426368603722501,0.06238636349325442
21,0.14697891213229053,0.9025099475664873,0.3959832168655964,0.7309476484119258,0.15542994126238935,0.12484920476880322,0.9063906399954491,0.05054121233033421,0.10068024110050663,0.06919162726365442
22,0.15031696261800703,0.9055728720888545,0.39815122208961773,0.7318385892109197,0.14721658914588132,0.09118615217278175,0.9104714992309441,0.054640320735104775,0.05701908221914409,0.07073023195616199
23,0.15090178099319124,0.9076053537467439,0.40494001784204214,0.7361584932546936,0.14361665047281288,0.0958996229178613,0.916565927093597,0.05881572733020093,0.12102820794153601,0.08597625375911598
24,0.14765487734576208,0.9103634121833983,0.4160775529339526,0.7394283391795037,0.14735517223971245,0.12454924933619482,0.9258094733868236,0.06304002784623215,0.04111371767506352,0.10390793605020268
25,0.14408507212077018,0.9145009886037244,0.4268148802025911,0.7425647058118907,0.15184495319902988,0.13628373181976508,0.9369574477308539,0.0673258893490157,0.03609687423814798,0.11320094435056786
26,0.14118535468775095,0.9208735154629957,0.43150417162067967,0.7453563440447303,0.15363833952428793,0.1338535566755791,0.946226463331142,0.07171606445107781,0.10006503489745376,0.09671713374901611
27,0.14146386355492346,0.9277083811271982,0.4291473568394969,0.7441159860377391,0.14812955985654316,0.12117763598464634,0.949774287845274,0.07621375954961486,0.13311595999277534,0.058738025601243436
28,0.1424198066411601,0.9323070040983975,0.4272281773009838,0.7413532995332252,0.14255527229028217,0.09124034267809306,0.9491270173326122,0.08076399166014284,0.036421898557064576,0.06497144847689003
29,0.14436325049364895,0.9338655974024815,0.42813607825405253,0.7414871402627254,0.13652929066492067,0.08514649942590861,0.9494738951724772,0.08535173723345353,0.04149839197038098,0.0782056559851958
30,0.1457067999883932,0.9346191629302406,0.428217951827382,0.7385693083394005,0.1320242131627377,0.07415762180788153,0.9513183118942099,0.08993760945867736,0.06781011133478497,0.06005535485242521
31,0.1460748030673482,0.9345958373125364,0.429000988583382,0.737036851433944,0.13026644942321922,0.05916752896467947,0.9530274195656044,0.09451053774562058,0.04306005584714926,0.05487615096945912
32,0.14540571131781016,0.9332376709732808,0.429408642003408,0.736455150785641,0.13037078557843895,0.051751198129671626,0.954892541216915,0.09906613601435686,0.07412181060726183,0.04233120712925453
33,0.14409660387021753,0.9311259270938238,0.4294385293565439,0.7390653438119533,0.13153326536656537,0.03992492052401961,0.9568101768514365,0.10359092510106536,0.062253435218582696,0.035218571960908523
34,0.142721862703283,0.9286443243780002,0.4290802659946854,0.7438760186427967,0.13270086472592052,0.0328113090279117,0.9581473461658969,0.10806448734380887,0.027726328875567016,0.03359889549689154
35,0.14222689632581276,0.9252828516717659,0.4287468935986671,0.7526669372467919,0.13234460232527742,0.029877457699567598,0.9591049155214639,0.11245741121601521,0.016427141069355746,0.03394197958850174
36,0.14188216053911323,0.9215898323324221,0.4294049751869615,0.7645070398186699,0.1325087927504187,0.028757882629368074,0.9607422369758302,0.11674438798247437,0.02757172139037237,0.031123393505310418
37,0.14234428665598942,0.9176283674984143,0.43000246333325076,0.7760486052637497,0.1312199858521541,0.02473204437048747,0.9630391489362902,0.12093036944023844,0.020688743613317087,0.019875119722603383
38,0.1435399657436649,0.9133923702160088,0.43025270956024503,0.7857056638194568,0.12846105815627118,0.02750029735499964,0.9649582234410866,0.12500034652768605,0.04368211340437149,0.02261121993101423
39,0.14559265607838265,0.908666204324702,0.4307927252571536,0.7974678950773483,0.12474172586330343,0.03359801732419767,0.966360075011547,0.1289247810892539,0.04103882244113554,0.023108019690704543
40,0.14738887146431684,0.9050191733763873,0.4299684333172592,0.8060837812201637,0.1213045485562701,0.02642794207126774,0.966760871929156,0.13270163353973569,0.04973581769192252,0.016398012122266173
41,0.14895343251894483,0.901512571672208,0.43041542104119,0.8131773901256878,0.11849284515077813,0.01710627954158157,0.9667671881163283,0.13633671384713344,0.03699229045499995,0.0016239873625715218
42,0.14835501513312263,0.8988243703279936,0.4304962169623576,0.8195948321410274,0.11880957054277717,0.012062208689721242,0.9673746500429169,0.13986100676711632,0.02412155415202336,0.014993932593695115
43,0.14588540445934994,0.8967991953831981,0.4288690041845303,0.824548635622571,0.12103234850908516,0.026987786420306286,0.9677696198280908,0.1433290960194879,0.06231519045493441,0.04377385054717725
44,0.1428669764850998,0.8934264247852242,0.42659870597803623,0.8295569548729208,0.123757079853973,0.0492938487527695,0.9679485319130681,0.14678240942416573,0.03765007422773066,0.08339872538385909
45,0.14164079980600303,0.8900436109667668,0.42574736776797784,0.837301972441511,0.1243231731028768,0.03374623378555385,0.9685661876111615,0.1501896041867164,0.09538117297794346,0.07102152050580496
46,0.14118331255753666,0.8842177578454605,0.42529111503455247,0.8477462736418603,0.12388196225600093,0.05660361524239212,0.9698309257759691,0.15357262339444858,0.01704133065093335,0.10996617506432563
47,0.14219649709000828,0.8785869184562619,0.4255009912919282,0.8577836295590932,0.12119080712382113,0.06495837233689507,0.9717551142645251,0.1569313794916664,0.012790975873772507,0.10674010540366673
48,0.14397934766078693,0.8714157703489507,0.428642536282508,0.8698882643776823,0.11848404647022985,0.06245985505730935,0.9751081103020343,0.1602371573002464,0.06974722066700596,0.09256563253070557
49,0.14498979160956244,0.8652322584073069,0.43103613818975844,0.8783549449170825,0.11739326568638395,0.048617370529012785,0.9788149995926853,0.1634727454697962,0.013312906155970241,0.07263025481062681
50,0.1456259067236793,0.8590468011424349,0.4327771517356431,0.8836135211969116,0.11702754324584864,0.04489103712665208,0.9811751154617113,0.16664523084866556,0.026165057313949667,0.08033349075425925
51,0.14574442331243948,0.8532918372366515,0.43275324045358615,0.8875500490480854,0.11706996779021787,0.0482036753954343,0.9821330033517255,0.16974940695886437,0.047141218054492375,0.09285236240966169
52,0.14500428799582532,0.8474835189924987,0.4321954225027844,0.8900552991609819,0.11835538960530377,0.06164850356471777,0.9819924405496704,0.17278434042223897,0.10284118561139635,0.10410308237776299
53,0.14491514941837605,0.83954217085265,0.4329902714461161,0.8956696689822501,0.1191280983664106,0.08842911458919,0.9822794711952199,0.17572734329786513,0.08779486626641228,0.12482920532327167
54,0.14524272695176074,0.8289309955612247,0.4358114913293506,0.9020511983161875,0.11993511831656681,0.11316675276095445,0.9842199117654019,0.17856204011740104,0.1200295779040005,0.147489533845762
55,0.14635552265424795,0.8148980073346562,0.44192306317212665,0.9150485113636221,0.12139696017542426,0.14685564921972066,0.9884522024673553,0.18127503857379784,0.07376574865138953,0.16241821763849001
56,0.14812189038813456,0.7985511012924317,0.4482225173713403,0.9274975509714646,0.1229708135393605,0.16870455787537325,0.993877211569071,0.183873802085752,0.08033121848792112,0.1815863434861423
57,0.15077542667819305,0.780298736110974,0.45344182821287576,0.9369226842072924,0.12386682001661731,0.19335014258224584,0.9983908659295244,0.18636580832448055,0.03984470558332557,0.20202069341776765
58,0.15318094753944206,0.7613848489353564,0.454198385515758,0.9376797992084395,0.1233903890334699,0.20617059276098412,0.9999999894806555,0.18879470405737223,0.025822142899964626,0.2425377548234629
59,0.1533032265236755,0.7432050085264418,0.44826788722712496,0.9220611924638358,0.1234859306783164,0.2203912299974026,0.9965499310534273,0.1912266002594816,0.0195886375793154,0.3015119848982764
60,0.15485988249164662,0.7228052834354212,0.4414929679957187,0.8978907695841184,0.11985603723739113,0.23077852647826513,0.9897753318242277,0.19369588530786216,0.09461737802162723,0.3493610252163154
61,0.15859063008502003,0.7007664761251923,0.43759083500326196,0.8760318845741806,0.11300945909169118,0.20135807566435984,0.9836460240903013,0.1961945292516254,0.08844924515697361,0.32159997306147176
62,0.16462584309848777,0.6792759294966414,0.4347774211004589,0.85962452302651,0.10258096866107767,0.17389583223550045,0.9794167499999105,0.1987273914154522,0.07595962111204467,0.29579592838306096
63,0.1712070184372098,0.6640903898810838,0.4240787353593354,0.8365804321640117,0.08920882262249188,0.16387942492529153,0.9735322117350695,0.2013267223089034,0.009525445108803144,0.29769700893143686
64,0.17851211932397715,0.6528641050290864,0.40740159230950923,0.8104131328587446,0.07510011199733707,0.1692825391991578,0.9632039974516323,0.203994765104999,0.0324405712122856,0.2859839924858592
65,0.18410796674767865,0.645248927716267,0.3854199864030144,0.783612822583585,0.07630786193044484,0.1751320853392706,0.9496808097987397,0.20674269891154604,0.028909381013090107,0.2757344505387364
66,0.18779572313778006,0.6369879858671065,0.36382638425894664,0.7571307547965379,0.07997216437484507,0.17572855654348055,0.9353885275602964,0.20958434357677402,0.0185348023712056,0.27521971873947365
67,0.19031448778358978,0.6261303619155022,0.348243694947778,0.734537075461196,0.07819470044188526,0.15509666807660108,0.9235758706440338,0.21252165573447787,0.009871822419633218,0.26201387157817674
68,0.1931401419186553,0.6123921586446146,0.3395449286844048,0.7151256124887776,0.07756996829946056,0.13852550837847932,0.9156698212005051,0.21557823311625388,0.020169624270748865,0.2679290095231912
69,0.19683476314158882,0.5947671207986682,0.33818099192789125,0.6980927487291342,0.07755727684508183,0.1311721257584276,0.9116638825652543,0.21876540884028467,0.05253949772731997,0.2706134159697242
70,0.2014033277979323,0.5739540507540427,0.342023829559356,0.686762167232743,0.07823574463379737,0.1466708119016622,0.911194726746452,0.2221121501969455,0.010859328447478224,0.29453225034964103
71,0.20513585142329782,0.5529793484561419,0.34755695061107705,0.6760567035687917,0.08097100540795706,0.15450431426822006,0.9122356180759301,0.2256688238418132,0.06986183126359509,0.31066298342597526
72,0.20721001308147474,0.5366695587668505,0.34393249149267985,0.6481821656236286,0.0849208926457383,0.16701925526972222,0.9073633680896835,0.22957420252840544,0.11612447584746233,0.3428132970380884
73,0.2080161157872895,0.5278997000588929,0.3176324464665721,0.5874411487525861,0.0896787541580641,0.2748733508494581,0.8833318311424174,0.23409321625651633,0.3079906004107589,0.4215958276180517
74,0.21284427319630966,0.5204875496925628,0.2718630336485226,0.4941269280539852,0.09283666609868142,0.41798869089569723,0.8328248301149832,0.23952050417630444,0.026649402329357273,0.434753532811198
75,0.22486793246135303,0.504126569454882,0.2268513922414727,0.3888627140968586,0.09368884331680825,0.43083981122923476,0.7683670320479463,0.24595088838249315,0.10964553177490896,0.4035453432119378
76,0.24295343569766362,0.4849399326528811,0.18856169716411064,0.3020565815049979,0.08779933385383056,0.37614048735313466,0.707304602590816,0.25335476022777975,0.048588606678197435,0.34470835790428606
77,0.26566948818745373,0.46659149608192013,0.15348297166886712,0.22763041198710565,0.0793077726640011,0.360403078533394,0.6530895097698584,0.26166060262473634,0.10362397165931961,0.3237415980759029
78,0.2942582304947292,0.4492481245836164,0.12239557587569089,0.16210066663507097,0.06778881118497947,0.31694516988938887,0.6049696088288177,0.27080310306639993,0.01571836777448412,0.26875945447127864
79,0.3295300596645092,0.4358305487896209,0.09069272873428211,0.16294703824338164,0.05380711037664541,0.3172265538728798,0.5605126718513076,0.28074907035976643,0.03598462504573536,0.25531612126517705
80,0.3687581391030098,0.42658846976708653,0.06112860126951143,0.16258098761514583,0.03899734399476394,0.30125961870164275,0.5177506023483268,0.29147173445418434,0.07802712194063414,0.22348839207062002
81,0.40745793342249764,0.42072195369781085,0.03591755874158062,0.1620890525896032,0.02362755274040126,0.2699794766631445,0.4788333683598469,0.3028848915024132,0.1183511749727101,0.2044549605655389
82,0.4437839638056543,0.4162327302340309,0.01682923195946214,0.16232948634468478,0.016363048050219674,0.2288417100449112,0.4454285500607578,0.3148530787190091,0.11751946703131162,0.20459623392572124
83,0.4732551706994825,0.41158576016030374,0.004738114659209917,0.16311846072772576,0.02951751691997596,0.1786829457553201,0.41876923874221833,0.32721468287496036,0.06391770122555049,0.20821548854387753
84,0.49504129371200895,0.4058113612095151,0.0,0.1644765177611624,0.04406411064014866,0.132144902988043,0.399982130617425,0.33977592644030236,0.02728829352241989,0.21479697666185343
85,0.5114570214382606,0.399546891768845,0.0005619186272095492,0.16733322240174853,0.060409278946513066,0.12389196260954191,0.3879416982462069,0.3523465211449303,0.11098595868119437,0.26242427983880073
86,0.5209192231523951,0.39249674674633067,0.00580238713959651,0.1717520358278696,0.07619795622855853,0.14307031363568784,0.3811114828057524,0.36472917165339613,0.13266817077860757,0.31418116652311334
87,0.531048972466812,0.38578832784444667,0.014611731711153613,0.17955526936740432,0.09767514986455077,0.1841830189421441,0.3783697683590105,0.37678283671457524,0.09129102101495692,0.37912133955154365
88,0.5435363087686057,0.38059215836398125,0.025447230292633023,0.1907747457808628,0.12393356581224785,0.2158249483750249,0.3776152436101079,0.3884290333577871,0.06840364552827245,0.4233127287072792
89,0.5560828272656154,0.3762473324560779,0.0371487973296287,0.20224430474627558,0.15042259825574555,0.24351407178653886,0.37688812712403413,0.39967267774143744,0.07664387710723833,0.4778842963113152
90,0.5690760788702924,0.3725040924408703,0.05063624393091937,0.20857275865525907,0.17918953364432938,0.27492849983397577,0.3758298221312101,0.41054504193521757,0.08500133944259254,0.5367723141365841
91,0.583777332565024,0.36922454400135113,0.06635594201920042,0.21170920514274966,0.2119943766346692,0.3104535818681489,0.3757356216390311,0.4210783592667077,0.1226718014878939,0.595733261944471
92,0.5960648578978943,0.3650635867225293,0.08624327090411822,0.2162699870446755,0.24827503604459894,0.36040916233846854,0.37977289564226685,0.43129821201564655,0.10776417048702475,0.6607076249013533
93,0.6070349077504201,0.35939391359944345,0.1041723238698227,0.22380860602356673,0.2812895818949864,0.305801077880033,0.38910917342125717,0.4414401271634261,0.3789383584544596,0.5473503177875575
94,0.6282603297273139,0.3548131508219722,0.10910945429189488,0.2195174216149635,0.30569196377849045,0.1461349653222676,0.392087979805851,0.4518127885428943,0.01602902639145377,0.27851211322728625
95,0.6524992976384665,0.34966375839335795,0.10603305127517175,0.218313261167719,0.319566160391913,0.15481862557946702,0.3824725489457014,0.46265269308726625,0.1243484978401883,0.16279434511437274
96,0.6774132348298375,0.34656729129687097,0.09961657034915677,0.22994562600594742,0.32671758231454767,0.21112195703172973,0.36697702581107733,0.4740397367202789,0.030727243627320818,0.2117341019332617
97,0.6997533419019653,0.34369524239765764,0.09285949535809164,0.24586921297461947,0.32966289663817877,0.22557299891813568,0.3497634463049252,0.4859055891981644,0.09291631738832205,0.2523947846518313
98,0.7152237438722385,0.34271686028510234,0.08874753859131901,0.2592811478879481,0.33042788305678045,0.17820105634238412,0.33406626488512103,0.498071258917968,0.15063408313100898,0.19754331232982594
99,0.7232420927236817,0.34139574837804176,0.08845576076964864,0.2847082016417995,0.33147162331558694,0.10396190944986672,0.3235169766391599,0.5103193371418343,0.08250943580334714,0.12263120972722209
