Frame,Center of Mass distance,Symmetry,Grounding,Arm fold,Leg fold,Kinetic Energy,Potential energy,Bone length coherence,Torque,Center velocity
1,0.9704554298657738,0.43667939621093055,0.02812002454982519,0.9999999164523722,0.5497425791717861,0.0,0.0608058014057441,0.9999993083133504,0.12105807607375205,0.389687657150197
2,0.9901745783582397,0.44188784346600596,0.020093444413980643,0.9792158008884102,0.5252665040476296,0.0,0.0608058014057441,0.9795161746429789,0.12105807607375205,0.389687657150197
3,0.9999999983711731,0.44956691097880513,0.013035179184350616,0.9510408619687266,0.4976242707205291,0.05291517506056091,0.04701788373138299,0.9571542035281136,0.22338345834688203,0.46563343592419376
4,0.9870574008804158,0.46157513241117426,0.0072165330127073445,0.9140010551734342,0.4629260971909214,0.1448272605285007,0.03313333341059513,0.9335574505626673,0.09441695502041915,0.5814648754942642
5,0.9548066968624477,0.48020884956344706,0.002448090566479876,0.864386608877161,0.4215450405784435,0.12791213785148575,0.01970597779553044,0.9089826157002626,0.0884968890117797,0.5527614601410366
6,0.9118281526842164,0.49987463986591885,0.0,0.8150539934420139,0.3738029771272985,0.12347538512432783,0.008452035545352931,0.885150875415988,0.048938075592748605,0.5102393801184583
7,0.8594042175574321,0.5229070591522847,0.001714633243519249,0.7712518946164668,0.3206100940785679,0.15563772277129942,0.001583513828813909,0.8611654330919138,0.12830560127028126,0.5218286724317784
8,0.8065884792008337,0.5474230130000658,0.007761924355421579,0.7276698006666384,0.26909307094452917,0.12369677666700442,0.0,0.8375596780105679,0.11876663254250182,0.4555057204561412
9,0.7535886813039554,0.5755225495292231,0.017017300619149092,0.6845812405488705,0.21639141249478994,0.09731366262545456,0.004741885339119702,0.8146737272177809,0.020243805267671534,0.403967179095374
10,0.7037064297774477,0.6039330370031468,0.030170534076151997,0.6425159363743571,0.17007289120284597,0.09488329858648678,0.01598841726370719,0.792272325254761,0.08209511214223589,0.4170280721541287
11,0.6563710412683913,0.6300560842553803,0.047282668863366996,0.6051991515853993,0.12811804279266878,0.11353876129506059,0.03281241030379956,0.7700760376735334,0.15295496557161337,0.45677115557255343
12,0.6107480796924712,0.655600223700024,0.0683279970078589,0.5740612849711317,0.09007588924723549,0.15126406062710032,0.05523917679411146,0.7475447701212371,0.1705610715491393,0.5195810925731578
13,0.5698942676161675,0.6782822576010225,0.09347128005076742,0.5522807255963853,0.060072986121943485,0.19865425470948408,0.08378350973334657,0.724397495619487,0.24379672159137894,0.6106942859625842
14,0.5298199345767312,0.7032713494051669,0.12293584985757333,0.5399547235174686,0.031130031454616607,0.2728041057532969,0.11972855064436931,0.7003819746617914,0.2569885860682587,0.7177817776255654
15,0.4890590993185992,0.7332566614350637,0.15776301286180183,0.5362922651287223,0.0,0.34893554542356064,0.1662989063321094,0.6754713170845857,0.23726637688535873,0.8029576085639856
16,0.44368941710708354,0.7728629451719036,0.1981380520045298,0.5365059027796298,0.004661631707454859,0.42315574794740796,0.22477488481202287,0.6497142272334856,0.2089088218916403,0.8574076020590545
17,0.3987199466926727,0.8180832973397284,0.2399227988769157,0.5289080853711455,0.02013335318725835,0.47076925275017273,0.2927513227367592,0.6233891933659576,0.3793536345001558,0.9002740551070002
18,0.35452431895470676,0.8650509559396313,0.2809630195205529,0.5128362468365522,0.023100238020170895,0.5407403990101779,0.3669038964919853,0.59677336792079,0.1885488354229748,0.9825239510181528
19,0.31007900138636224,0.9081443339930086,0.318980550399469,0.4833258450292865,0.08524638760072642,0.5649734291574391,0.4423659300908068,0.5700996503456002,0.19600389887567662,0.9999999956484363
20,0.26860598943140207,0.9434015389494067,0.35083625686005226,0.4519721510133242,0.15102458703301486,0.5059098044507431,0.5118072580787985,0.5435466933371167,0.18370438621518106,0.9085884954445972
21,0.2314816426994829,0.9701130271342325,0.37477290969816074,0.41715227197529703,0.21396182115550993,0.4465485602606779,0.5704871848723743,0.5173180967394816,0.029058929773068606,0.8285069445341923
22,0.19692761571807843,0.9886122891847314,0.39239782296630626,0.3839410727948458,0.2758006144417791,0.43509191914341433,0.6191803604984754,0.49145519706678653,0.1302958913648818,0.8027613252604061
23,0.1664674476889823,0.9986126692323184,0.4068096402065462,0.35728161896101124,0.33469336716141607,0.4169816124420261,0.6617944960805224,0.4659254431992455,0.0294894332774238,0.7685753916062571
24,0.14084108694812078,0.999999995273932,0.4193277609330615,0.3399354761603816,0.38762012605000545,0.4346151982080593,0.7009165104300721,0.4406522017082965,0.12145049535049232,0.7788401102430329
25,0.12099420841922581,0.9932828185767778,0.4294448111020969,0.32952881027341074,0.43058667670027967,0.4360415708210276,0.736682136236071,0.4156584549785342,0.052952761329075795,0.79033836152876
26,0.10473285620630177,0.979902376484065,0.43677461591736844,0.3267728474708752,0.46775121811689047,0.45553559045490694,0.7673691858775131,0.3909607621646785,0.0732563488780085,0.8142265176570652
27,0.08773336504357837,0.9613805194257293,0.43943907020959017,0.3211921030072353,0.5096330915812455,0.49125608323868597,0.7896329473097464,0.36657417813379345,0.26209906574242403,0.8438038561775908
28,0.06819451946443932,0.9386453716340865,0.4327084516191629,0.30691580189720885,0.5580265403450134,0.5321477683329174,0.7984844614030546,0.3425774008015122,0.4477310524264605,0.8897300297562374
29,0.04534340691742826,0.9116826564553832,0.4126683523032038,0.2792880852186418,0.6144194326849386,0.5479870706504553,0.7893739598533217,0.3191047697082905,0.5361271623993975,0.881748208718944
30,0.020632957207935898,0.8819364601594472,0.38049218872127244,0.23452679105816313,0.6779660241137717,0.5558370507049074,0.7622748644464937,0.29632343164206726,0.03465606215601656,0.8393800286333298
31,0.019274462815470732,0.8498655090781018,0.341883332297591,0.18397379401128172,0.7377171784403657,0.5215461366215411,0.7240529104279483,0.2743537629417262,0.14341050642935027,0.7504586066963246
32,0.006169174054812427,0.8141804122172109,0.2958031471917764,0.12930123012200503,0.7894914624904361,0.5110898996476617,0.6803514773916826,0.2532913881148737,0.1398118041499207,0.6702137774082394
33,0.0,0.7729379393349735,0.2453746039410516,0.07238373608191147,0.8351404486945782,0.5223474573233705,0.6326672562307185,0.23318687463917953,0.31172616050149554,0.653511234883136
34,0.001044015358113044,0.7238297371712218,0.19670887705643825,0.028338760315015345,0.8738612275193248,0.4983352877993781,0.5840215363687286,0.21394291867498702,0.3996757206345163,0.6556401036623402
35,0.007524718559205747,0.6662090428290032,0.1525278210130304,0.00365990088073246,0.9054570288410403,0.4743817765669507,0.536727438352652,0.19542252888141842,0.11637754979276065,0.6619741552623459
36,0.016921477165781885,0.599049742539288,0.8991109827673235,0.0,0.9317470923476034,0.4928868807533229,0.4905537945203001,0.17752412861922365,0.1407659891859003,0.7065580344524287
37,0.026085934247355683,0.5269952214879857,0.9299881417332306,0.009080166117988698,0.94897623648386,0.4917451623451469,0.4490875454692533,0.16021158583587425,0.07705440572910939,0.7471977094094858
38,0.03655994005937076,0.4491599129350163,0.9594367723157017,0.02874916575595008,0.962009156687906,0.5170716614687175,0.4134077361041851,0.14347520226539473,0.9194274596015493,0.7569154211520817
39,0.05320543883903974,0.3661390295655123,0.9963404761015199,0.05417158364878259,0.9783721551977418,0.6625117136103967,0.3754804718945359,0.12736637658447678,0.9388638836023838,0.819210421819713
40,0.07311177979281024,0.2862431652064501,0.9902283036320079,0.06920831594924387,0.9896627083187479,0.7962450591868319,0.33626434893463925,0.11195715031784598,0.9999999998883676,0.9006150321396691
41,0.0946448586012872,0.209164435347814,0.957456063660668,0.07381484507649531,0.9962650947182728,0.9387886776019638,0.30254034667500646,0.09737623987013327,0.18869081502841503,0.9960799481761475
42,0.11331714175503411,0.14015280540915026,0.9333194115076923,0.06598337467461067,0.9999999685735858,0.9421471153581843,0.27718191550276544,0.08372259646781642,0.16060443972701058,0.9534072112704763
43,0.12521694248467824,0.08879073125310046,0.9243076495615754,0.051193940389568406,0.9922611327284152,0.8784618733821915,0.2662742183381715,0.07108530644156119,0.02172093374470219,0.8405750254056052
44,0.13511373784659858,0.05010455627650077,0.9270503768304412,0.03306878602089437,0.9667946066735631,0.8779063990750631,0.27124794547358766,0.05948525172410784,0.27308703457912137,0.7975280869927737
45,0.14048730336339454,0.023955430067659295,0.9413860927079346,0.020473405794440545,0.9323549083013297,0.7917195787926616,0.2879871282340073,0.048877415360928635,0.13432957528556475,0.7218019210588018
46,0.1402530577179132,0.007447362596110468,0.9666368600969525,0.021748276558841782,0.897707452787657,0.7322712371823091,0.3142181335715724,0.03922464077015684,0.13890806487775434,0.6834019176674928
47,0.1356807362048545,0.0,0.999999989884703,0.03266684599066624,0.8645774535060656,0.6663294824174034,0.3480638207574391,0.030510172484133534,0.028001927654201172,0.6726287705050207
48,0.127448797076261,0.0008640186729942667,0.9795216427201195,0.05488042448492046,0.8338410050143081,0.6820327735449133,0.38981445690391014,0.02274438458401431,0.1349049806258583,0.6795452305824649
49,0.12113261038157414,0.0065590702626143384,0.926531986589973,0.08670308494844885,0.7968371093618525,0.7781365413377247,0.4418184999009745,0.015956596009040223,0.11974745739955697,0.7280346476568269
50,0.12045446471620791,0.019350221943819853,0.146381422784034,0.11538692835538045,0.7534472476378519,0.9028838244780959,0.506310999290567,0.010256174049287345,0.07402746276406592,0.7196102614739808
51,0.1300072653478553,0.04863816822071323,0.2098367820458474,0.13661088234302302,0.6959568472234682,0.999999998749818,0.5840748242688344,0.0058091621633637545,0.042579793103755106,0.6176480879391898
52,0.1471196205820229,0.08996631924734236,0.26535950982741924,0.13555831499106857,0.628362395181339,0.965203382723013,0.6696555870204797,0.0026188103936683714,0.009477343866511816,0.34665570680711527
53,0.16536678926373827,0.14316211675090615,0.3081023952405713,0.1260043593163399,0.559065783908743,0.8929321076747728,0.7513310380753778,0.0006882287392525403,0.032836206907058754,0.13145286591930716
54,0.1802124333899816,0.20542932219350743,0.3326141813955495,0.10110475427470444,0.49479758377987887,0.8368032804938519,0.8186628586646807,0.0,0.08533022037337597,0.0
55,0.1900384238779965,0.266071417546206,0.3481827274021464,0.08032708780930636,0.4371525009415394,0.7719220010880462,0.871032436659647,0.000533632709500969,0.16252546569339954,0.007838634791055446
56,0.19747202996745813,0.31783047589815433,0.36256080029245535,0.07604726154498595,0.3824477828154474,0.6748325930507335,0.9148175057493705,0.002184518464456296,0.12996112617128658,0.09400016781115011
57,0.2046432998940022,0.3568100457614134,0.3821860897285539,0.09761092171695884,0.3310840244590889,0.5935142930869276,0.9567391278248872,0.004875966943072017,0.0,0.20267893956196095
58,0.21074106250982583,0.38425730014261583,0.40503832362357717,0.14304982423851298,0.2833770338116,0.5754982123989946,0.9999999863282759,0.008525688990719985,0.0,0.29116180860512225
