Frame,Center of Mass distance,Symmetry,Grounding,Arm fold,Leg fold,Kinetic Energy,Potential energy,Bone length coherence,Torque,Center velocity
1,0.16803425583192505,0.9829268196576838,0.334768852109065,0.5376721242114749,0.25983259791894414,0.4946295545888856,0.7135125746374574,0.201605537191244,0.039349177453145194,0.6001828783810776
2,0.13664605753848874,0.9814166916525463,0.33380491115449384,0.5175507536432892,0.3019103585310447,0.4946295545888856,0.7135125746374574,0.1841994800817657,0.039349177453145194,0.6001828783810776
3,0.10615367805357073,0.9760745940682232,0.32485006818915263,0.49907081710143897,0.3440626900915727,0.47180605805600756,0.7181536368420864,0.16858013374758127,0.11831132485958573,0.559980820323621
4,0.07856117145224051,0.9664322451399966,0.3069924009955804,0.482652952878104,0.3835102940213966,0.4668296806627639,0.7122760679282041,0.1542426578187533,0.1974976798492404,0.5461506927794784
5,0.056635468478327,0.9524178492452818,0.2854260592380416,0.47057030818073997,0.4198669453607584,0.44737696118775094,0.6990158621362867,0.1403970060066166,0.11544378927337125,0.5239797870889199
6,0.04180269029017471,0.9335678396450338,0.2616667598583419,0.4626841160215279,0.4519895688885746,0.4448393865098159,0.6815269789994509,0.12672255494979962,0.16635945223365425,0.5219431260349848
7,0.04031525370327786,0.9099380619709236,0.23767133522683595,0.4612839168230833,0.479939815835789,0.4416700544592284,0.6606982016054919,0.11315511988583145,0.23063677657358236,0.5193852075725175
8,0.03507004091653062,0.881588963760735,0.2160092166743942,0.46265128932393146,0.5012942613567213,0.43567457365916723,0.6383780134857592,0.09973448142730537,0.08519098715839708,0.5253860053858119
9,0.02693103876246114,0.8486153957239356,0.19136400963900696,0.46518270843164905,0.5230049828929685,0.4476059142778733,0.6136011105090531,0.08659810647433344,0.5154252545099766,0.5383020327134227
10,0.020305104961873228,0.8088309917250608,0.15660152695418997,0.4644682821701484,0.5506097354084644,0.4899925037699377,0.5820604362234318,0.07392868102081868,0.6346817140516234,0.5657205727493373
11,0.016103665372782815,0.7616693927414296,0.1107055527294898,0.4557346014666386,0.5824879197588774,0.5373999857551619,0.5424202625487518,0.061983240417203524,0.6956667489571408,0.5885832684459664
12,0.01622950780382636,0.7096283011169574,0.9458223697013656,0.43807996571294394,0.6171683763610853,0.5868997628490192,0.4970613767023586,0.05109228445807383,0.05392529923524058,0.5788836902988398
13,0.019548989182256584,0.6569719188966303,0.9974068014233356,0.41580466734050187,0.6515560743898746,0.5896773206240826,0.45285283524668657,0.04132093668730831,0.06460918802688444,0.561134460364413
14,0.028704508407677933,0.6048099433683862,0.9542392610267122,0.3967511274960325,0.6800354982916661,0.5946665193059523,0.4145222196823646,0.03272653312808721,0.2718145536445357,0.5325018457545164
15,0.04449911661185766,0.5542269194289345,0.9076363166776924,0.37070206168444214,0.7005940055771581,0.6187533536228015,0.38092221025761636,0.025487478302293462,0.16256759798048398,0.5223144430147224
16,0.06438840714794335,0.5025416304674979,0.8681119366645141,0.3432699863289128,0.7127401031427326,0.6394239458479196,0.3522804115206874,0.019548674388268808,0.22370870794000086,0.5519741233610531
17,0.08510604529247155,0.4482644016636247,0.8377418295876427,0.3236421786911085,0.7180312400122595,0.6180744869048458,0.3289488931081151,0.014674377171885637,0.4444257532243605,0.5602084539282005
18,0.09924771755540152,0.3975981785806403,0.82156554992544,0.3169614032168906,0.7184902768390403,0.5686751478561924,0.3130491626232737,0.01057256698790124,0.14180368364844134,0.5560684160468936
19,0.10475183586366739,0.36333775486808567,0.8178180127775092,0.3227597269658016,0.7150577551530735,0.5658427911151468,0.30632215825482423,0.007052635117865261,0.15651212475599105,0.5913654198317494
20,0.10373864725284378,0.34073404815280695,0.8237521302754707,0.3413340959006988,0.7091953960961999,0.594742242462974,0.30772853157593916,0.004105411802818681,0.485630381273041,0.6298691144759693
21,0.10642785885665418,0.31289087116632924,0.8314071279992588,0.36366424746299264,0.6979918939669054,0.680082905273637,0.3131695134158123,0.0018184077982158903,0.5277880230498756,0.6907644124478202
22,0.10889662699177922,0.28424013581247937,0.8479420859419682,0.3831550140026161,0.6785971617426018,0.7707213136477586,0.32276426024353705,0.0003692009149532518,0.468891327800844,0.7435160010402014
23,0.11221696466985907,0.2561810001601938,0.8750440383943848,0.398283465166148,0.6485083316416984,0.8630099400818992,0.34084894122878473,0.0,0.14201687033515728,0.780585123585688
24,0.1191328362843058,0.23068498828198647,0.9031176212266719,0.4018438964269269,0.61209838526604,0.8217364487486082,0.36396987010858695,0.0008320310055656675,0.19351268290952753,0.6844662646230946
25,0.12483124045094784,0.2210202991320502,0.9352607207444104,0.40077912929960635,0.578565131380718,0.7660178098345791,0.3933180648760573,0.0031340882879394957,0.017168590409184326,0.5513778746792333
26,0.1330048838485545,0.2214359180219815,0.9713081095126688,0.391542711507807,0.5433298832310735,0.7702022555082125,0.4317149300923118,0.006931075815485163,0.12444663857277738,0.4801525163331191
27,0.14043571216563866,0.24024916439431948,0.9908645788298012,0.3842834268827526,0.5107701928749325,0.6938732408942987,0.47550448560423464,0.012137288786749703,0.023993520307028587,0.3927373332604533
28,0.1460678648345728,0.27293694685953146,0.9491833652212845,0.3831872262928282,0.48311387058101113,0.6410278922411333,0.5221295205604312,0.018602146124082914,0.05202884012691429,0.33827010068668256
29,0.14997928986450243,0.30944863586031024,0.0988215441983739,0.39043250671609353,0.45940083440198853,0.6294764318859488,0.5712327989093878,0.026248184171157343,0.0525717931711512,0.34469828559531446
30,0.15380088634370562,0.34464798309499406,0.15064375607773015,0.40477703508176743,0.43888255793272585,0.6249529088201607,0.6237214227193971,0.034976635459679044,0.15761426510357496,0.3494024422034485
31,0.1635389433554319,0.38157083934649877,0.20400963480003623,0.4267823924776464,0.4084932911697383,0.6770498625182393,0.6806103145240019,0.0448501366806006,0.18156397006320274,0.3516068676437462
32,0.17842503191238768,0.4224614479111852,0.2540873753936878,0.4488228717077825,0.3672219345945017,0.7443283866404443,0.7419516531762876,0.05605808464131692,0.06971857000254884,0.3361788479002128
33,0.1948841703053464,0.467621208885055,0.28827391285308285,0.46714949154575147,0.31231331411123636,0.7787949869612242,0.8021110825034783,0.068829735367436,0.0895876022804879,0.25585148065951285
34,0.204656535106735,0.5073233310501574,0.30585976699836737,0.4739256291938848,0.2569158214763639,0.743769998003867,0.853054234961609,0.08313856107578729,0.19069407582176556,0.22559191645054769
35,0.20712818559964852,0.5435474650052923,0.30561368115377147,0.4742147922163486,0.20718525182852096,0.6922119836838193,0.8874342608579177,0.09893574991305427,0.06492073012574519,0.24178266672692814
36,0.20412181688846665,0.5786494463705298,0.2890375340652782,0.4645779932218801,0.16423459081715572,0.6780458491401193,0.902204811724314,0.11614932614906427,0.1991422669335133,0.26402814998779567
37,0.2026266000637828,0.60785626766423,0.2682149442665388,0.4575737584184167,0.12766415643002302,0.6230099639556556,0.9028707691699694,0.13470163324868736,0.2235483887905333,0.2962447676151496
38,0.20593076792987103,0.6275927119580288,0.2503085923820352,0.46371536193669555,0.09322220410212276,0.5621819929476208,0.8976227038003262,0.15435500760381907,0.17947630059015057,0.3340808485723619
39,0.21298488860248407,0.6352111662547035,0.23873660279565026,0.48758209303340266,0.06129742833608111,0.5085430000125791,0.8927005878171006,0.17493069465061672,0.02623403739128025,0.36804444856973334
40,0.2229241711530841,0.6338919503859167,0.2288960148954632,0.5186940607535848,0.037674543455984366,0.49782896728380227,0.8884020461909187,0.19629036635896702,0.052703104729653075,0.39237138951341116
41,0.2392098167143531,0.6278974469922332,0.2123089793591689,0.5579393459618127,0.04540648812472568,0.5207076437704846,0.8790639521504998,0.21833052400741054,0.09752099886520771,0.42865844668538183
42,0.2682469813582797,0.6186829445955372,0.1828925410509779,0.5995382144843167,0.053971410903188764,0.5701992338188078,0.8576884601254721,0.24104047595344344,0.11358969339160974,0.4671760118487918
43,0.31482528138361826,0.6044257763441012,0.14383283636691646,0.6399073296587534,0.08815160181346542,0.577262790837601,0.8215818571221676,0.26449654177350207,0.2958057643149182,0.47824441470208656
44,0.37135509402869665,0.5860335970226138,0.10191409879978527,0.6655621917811813,0.150166959592053,0.5252125889573568,0.7735324539517943,0.2886522775218143,0.3115201971901126,0.4246893710345153
45,0.4256229208847338,0.5655439889825161,0.06473875685511732,0.6832165408122632,0.20004243962961776,0.4376424840850259,0.721149223796725,0.3136003562873973,0.1319299637646651,0.33902507818133604
46,0.4786086067420902,0.5458505749294971,0.032089796324623825,0.690309938378844,0.24046829906548903,0.3988618034455872,0.6694088000957927,0.33938267710738956,0.19664053434882797,0.30053229334163917
47,0.5258727458601515,0.5274081891802921,0.0072711150235698395,0.6925172377192149,0.2715001189812072,0.33750957399664483,0.6207535837879801,0.36577591534068754,0.17543015457192002,0.2627408541495865
48,0.5668340473702723,0.510185323558893,0.009946328750025374,0.7002788634889676,0.2956910082537295,0.2811672862600308,0.5790470361816402,0.39258713788522254,0.027605763515114203,0.253310584553575
49,0.6072343946973242,0.4925625610605948,0.02433353776735837,0.7162511490877294,0.31512759003518925,0.2736916876261206,0.5409440831752278,0.41956026536992475,0.12992703374180187,0.25405858479545224
50,0.6459813698550834,0.4733568200470405,0.03371843114402348,0.7400443637631863,0.3349214601975339,0.24772383091696762,0.5055001017958117,0.44648444357551825,0.04905292012938758,0.2601666380725321
51,0.6893681519068262,0.45142219618878227,0.038977928805822265,0.772245381964938,0.36203664843326955,0.25616766029835847,0.4739771195730526,0.47320072624586146,0.07472921509812384,0.2658963527780138
52,0.7359517658917278,0.4279907826995547,0.03696481579716729,0.8049999370930504,0.40188050202025577,0.2525774517433063,0.44695423982544064,0.49959451170802077,0.04224739197177911,0.22327212542939714
53,0.7767239935093819,0.4082724587205657,0.028963451182500582,0.835103781899936,0.44479460128332,0.24023211095449354,0.4267649202746852,0.5256738101223538,0.11938241063136562,0.17554539322778134
54,0.7992305624652455,0.40011549820272607,0.02085715586005787,0.8536114192685669,0.4747084067634237,0.16095826495236049,0.4126620175223337,0.5513151520047626,0.10962339355286263,0.09022768902236852
55,0.8122530175770278,0.4006761927208062,0.018872487839362725,0.8597932572824868,0.48655013604274744,0.1499710564716321,0.3995872936680776,0.576554781814111,0.07023858652568761,0.10040730374890443
56,0.8177478459783389,0.40591531519121277,0.020757930768172467,0.8617524567225706,0.4857967353026878,0.10234180878586052,0.3861584438413292,0.6013897288808912,0.05797445323464969,0.0867748610049611
57,0.8228631358589213,0.40974536108175313,0.022387521139747978,0.8671370362337516,0.485856046952402,0.08368274442276838,0.37523794518543374,0.6257428432537895,0.018366061340914546,0.08249202059312868
58,0.8270442803391886,0.41411731356198106,0.023883874301410066,0.8753745280084422,0.48529256881384,0.0877405613480096,0.36398838845879466,0.6495875424254169,0.0573717769801179,0.06680363583399354
59,0.8302299953536618,0.41410995922919935,0.022803961856856975,0.8781200878294464,0.4893908018779506,0.061011708008815765,0.3538421442023977,0.6728662775123244,0.06322961676984977,0.05450409735665873
60,0.8343076996816895,0.41191327017195106,0.022684033134494432,0.8833683914569638,0.48969442951371284,0.023099555555189156,0.34793578072237813,0.6954847466381165,0.035817113530058495,0.03708809635593457
61,0.837434952536655,0.4076141223245091,0.023063982837351032,0.8893830636629813,0.48674037870633585,0.02964448204929065,0.3451920851685172,0.7174104751179211,0.014029712216902288,0.04712988662765883
62,0.8379441435487682,0.41147529973883995,0.027372110595124285,0.8911209042206235,0.47447853876701135,0.05915149579640735,0.3401362014525109,0.7386397346098487,0.02272219971032214,0.045059395237211336
63,0.8300006068946625,0.4219087772385401,0.03298161732493592,0.877864865546617,0.4591275039862462,0.03824496685516219,0.33645763918432503,0.759249021199116,0.015994699712284385,0.012037191137571441
64,0.822656857759294,0.4313941852423985,0.0375443928132868,0.8603740931216897,0.4468079532965539,0.025795553359232153,0.3355936884569868,0.7793582016023093,0.01988423600085682,0.008673632070037754
65,0.8140173733195127,0.43856722538296383,0.040999807967047254,0.8447275088057221,0.4358585933625368,0.029350453122721623,0.33428143911873315,0.7989394463308227,0.03163525153975383,0.01607622738175799
66,0.8055418934572589,0.4417449245810741,0.043445079833675106,0.8310959875582525,0.42687790305032963,0.04243062197485057,0.33683855601590956,0.81794420373926,0.05311909430308907,0.03721573409687383
67,0.7973749253895713,0.4429972146628405,0.0455935765824936,0.8162593055795133,0.41882128262508156,0.06465439523073133,0.3419127583938967,0.836326270092399,0.07720224142631169,0.07567815917966195
68,0.7867758070130474,0.44406918912058196,0.04717699578081782,0.8031419360772567,0.41030424868974885,0.0989959556627434,0.3492757220615301,0.8540506260741502,0.11731150875775355,0.10427390240802786
69,0.768928288985497,0.44461220386795663,0.04770526379966789,0.7926437069041663,0.39813248808704216,0.15420112259161395,0.3608806199266696,0.8710577510715816,0.14047344196130251,0.14974371610440054
70,0.7400499144676582,0.445637478486306,0.045979065718253886,0.7854590431627684,0.3810063473186189,0.21806814606220284,0.37882237196818347,0.8872454355182842,0.057977451750571576,0.1889359284656263
71,0.7049499953152405,0.4492274801545366,0.042274846935629044,0.7801469110712765,0.3605206735888188,0.23930057915077532,0.40206707296463307,0.9024915946265605,0.18894327570607197,0.21283026983189898
72,0.6531551711655814,0.45732711954926347,0.03415251495493043,0.7710112575973199,0.33045065515117994,0.337847349959998,0.43296482697737304,0.9166807326710426,0.04437069126315,0.2935210267070336
73,0.5976685380686524,0.4709062140811272,0.02270281181203751,0.7581178698789109,0.29780034489189494,0.36193260055940174,0.473195439323537,0.9297214060522682,0.015972215138828346,0.33267977127694076
74,0.5409809950317456,0.48803877349843366,0.009391055995770375,0.7394046667894802,0.26096031611705295,0.3690131585911507,0.5166387867196331,0.9415946916102572,0.04557762476296485,0.35588437111709215
75,0.482138430347171,0.5066459006102102,0.0072879410510144575,0.7191679932296693,0.21980248961492949,0.37858872505224844,0.560437201750754,0.9523773303190127,0.022833296087302134,0.36128803015911165
76,0.428499553285906,0.5258049656575302,0.026080397933502652,0.7038788847114783,0.17988728731538683,0.36095956943084545,0.6029361190958961,0.9621530191764108,0.07457869195904519,0.35102191348505957
77,0.37965347801306243,0.5451727455122145,0.047529442199308186,0.6908776664638744,0.14109275134640226,0.36398495682456994,0.6433249815332964,0.970995780520006,0.133713490927447,0.34918175475483854
78,0.3348341698779203,0.5607442152302473,0.07610862292128735,0.6811674376161304,0.10444934428022644,0.39067451785646545,0.6864464977636795,0.9788253443784144,0.2699218554028665,0.3435370809200698
79,0.2964673121118952,0.5720801289481541,0.11199912110113414,0.6791463981525877,0.07132345099696744,0.4421754419080565,0.7365521335442864,0.9854579460527663,0.22645165658218327,0.3497961978864312
80,0.2671182515577934,0.5791165486977222,0.15270888436134986,0.6818628494344354,0.0428732131391439,0.4835703542963049,0.7921899149441415,0.9908111951484759,0.18882530761933364,0.3442187851347955
81,0.24826113259390425,0.581852094517501,0.19452616029056077,0.6834372501680218,0.05138614327785446,0.5189753780711405,0.849038050326712,0.994894051562352,0.3129496070589269,0.3437952077606786
82,0.23428214231209207,0.5811694909884426,0.23927771537454554,0.6829412529406585,0.060064498734336086,0.6012504433089719,0.9040048751938805,0.9977118802984181,0.22072954104612208,0.37176942477418184
83,0.22549697650590508,0.5773664236460936,0.2780990859579303,0.6722580256789581,0.06282838717694816,0.6549316407802303,0.9503807599341467,0.9993777494549313,0.17401043335997587,0.39399812077883706
84,0.21769108724810468,0.5701989492908195,0.30752827881038175,0.651569202569481,0.09498052708151623,0.7006250563407145,0.9802499631053192,0.9999992591082639,0.07837783892660692,0.41583096343257253
85,0.2115680580481099,0.5596332568945251,0.32466490918220486,0.6236407822015648,0.151780699128026,0.6775823898411151,0.9923107278717039,0.9996644793843641,0.18353360072250824,0.3677370067422406
86,0.20635911808336488,0.5491555046427196,0.3294377191933861,0.5900994863775043,0.20475885121754442,0.6258829029923418,0.988084955333075,0.9984716762242598,0.03852192128796781,0.3135329786474359
87,0.20086383874517955,0.5384159393704624,0.32186447657496386,0.5565265354866442,0.25608454890129484,0.6178479398732559,0.9688041439642142,0.9965066035706407,0.010966376417883774,0.2846053479303053
88,0.1973765599133021,0.5249802906838021,0.306645992558955,0.5256450524302988,0.3011810022602648,0.6168459020092956,0.9375517988059159,0.9937953914103869,0.027856080931170524,0.24365534382079815
89,0.1944907917136439,0.5072580759818897,0.28813565206995506,0.5043876739277312,0.34042653060482686,0.6061251630976343,0.8994376210175933,0.9903378213764041,0.053344328385251806,0.19781969051509138
90,0.19092196891509872,0.48454802238727224,0.2658331266038214,0.4892091047137718,0.3715307981296103,0.6218443874750451,0.8556601528089283,0.9861093161398897,0.010178432239721298,0.15561906225133404
91,0.184606372340459,0.4560950085034316,0.24141781295822393,0.4803247717258351,0.39484683425064454,0.6250217807800387,0.8062641782692631,0.9811378748256053,0.057866268994324684,0.12243966353506544
92,0.17126170778546634,0.4225056968434548,0.20993418985194787,0.4768267602621962,0.42237783941502444,0.670408228507555,0.7496032016925009,0.9754432939036564,0.03625365107374513,0.13769523102310985
93,0.1500516058782709,0.3881987887101354,0.1679285732040152,0.47382377219889527,0.45870311777621336,0.7393151395432358,0.682910617409817,0.9690635357305587,0.025061169693357668,0.22629336155762617
94,0.12508113118759392,0.3657146607729826,0.8863622354001467,0.4675768167438574,0.503465840595919,0.7997886973859946,0.6077712745988538,0.9620600457787625,0.08701277467808925,0.34344145863064085
95,0.10376369587979893,0.35621808897957963,0.9460819475272273,0.4574786493922829,0.5496428880429454,0.7935732974822143,0.5307714704308611,0.9545918536991258,0.07994254259597941,0.42283301961930814
96,0.08999424311155022,0.3503139696351406,0.9999999899970714,0.44704914680232005,0.5863048893822023,0.718736517346969,0.46162775527405386,0.9468027621249018,0.012579944391485917,0.42513441900767485
97,0.088361230947111,0.3490505587287722,0.9495846417408199,0.4338084307515945,0.6132168649113507,0.6483021801797342,0.4067607201265414,0.9388567815419968,0.028908887478356616,0.4965039472383031
98,0.09436081833401135,0.34982711344043127,0.9048688159990632,0.4175862463988582,0.6313996951666571,0.6161891393490917,0.3658268336907792,0.930825808530062,0.07518868479564472,0.5490346027988993
99,0.09990392259051166,0.35213552667023296,0.8704213262420173,0.41135916798035,0.6434925236969482,0.6020677129680613,0.33431476770233465,0.9227066623255935,0.011217545978485836,0.5289719730373826
100,0.10142316941719161,0.35137051266167696,0.8460794239309745,0.41496220231698183,0.6517881916151682,0.6152670690637709,0.307295178593241,0.9144645986193353,0.08184761818804698,0.49429371360786456
