Frame,Center of Mass distance,Symmetry,Grounding,Arm fold,Leg fold,Kinetic Energy,Potential energy,Bone length coherence,Torque,Center velocity
1,0.8122427667069826,0.5572811422452968,0.04619333692679322,0.9999999059116849,0.4660137692726261,0.2674605554354242,0.14182168842876186,0.9999995137480657,0.325707576955497,0.6626256963584809
2,0.8740543573679157,0.5531380227627577,0.025392428007247843,0.9703149738150553,0.42780655658820216,0.2674605554354242,0.14182168842876186,0.9698650781498342,0.325707576955497,0.6626256963584809
3,0.9116793033627959,0.5548283176314752,0.009322793760985727,0.9375140674655918,0.3809103035613996,0.3313236393714953,0.11839404257853124,0.9368776057205096,0.563317363956047,0.738127726007301
4,0.8584398397010471,0.5685790317213423,0.0,0.9048037214316917,0.3207124175396585,0.4561378718202086,0.09532603114200003,0.9009762766576599,0.19200045442782318,0.8774212981199737
5,0.7515180642543844,0.5965692126840734,0.0003173650636133529,0.8683906269643481,0.2504137833713023,0.4337350150724564,0.07962900954160215,0.8645847918054774,0.46613732750601616,0.8013154951686671
6,0.6407431279695176,0.6309658516167409,0.011528994156629965,0.8301819557965132,0.18299885430528692,0.3718592510352984,0.07881348952065781,0.8290917946550183,0.5219048793003674,0.6999624034606204
7,0.5446381608728844,0.669121636998845,0.029305266217322698,0.7783528329476335,0.12469674911898894,0.2847094409956481,0.09313782944877681,0.7956715946828378,0.07454033317984214,0.6043388958827527
8,0.4607434069578799,0.7101940408453359,0.05148361341425877,0.7173499360107384,0.07383912763215857,0.24805331878740636,0.11948101314188958,0.7645284684561916,0.247089717564364,0.5476171594784411
9,0.3858452759957929,0.7496852033819429,0.07887626244792073,0.6543611371238381,0.028754343266824745,0.2750519811355635,0.15589377562521894,0.7345472276589521,0.2845978716447333,0.5798335411963318
10,0.32099679305186024,0.7841756541596382,0.11142611429344194,0.6035932026024462,0.0,0.30904824834940137,0.20162261612949578,0.7046826877185977,0.6892989840284197,0.6193257581054354
11,0.2636844282690759,0.812506122712372,0.15152672969158934,0.5691681263303446,0.02500402850326312,0.40744498921178585,0.25942076981591333,0.6739953514425453,0.431428152655922,0.7219076903111377
12,0.21476227361926406,0.8356555621800177,0.1969046939802547,0.5508738564850647,0.04243638083439123,0.4793079198558792,0.3310496432437688,0.6423611314246898,0.729769742427206,0.7759885851147158
13,0.17393752549882582,0.8539122559044228,0.24637851512224476,0.5335389300710536,0.05398050567909822,0.587105057565706,0.41607951399339577,0.6100886382316671,0.3819745993705727,0.8570158662559947
14,0.14260203440255007,0.8699051838357128,0.29094499172351224,0.509453764393287,0.09252868547269445,0.6184308925412119,0.5064279144301471,0.5778090347662251,0.3449014438953915,0.8510725859877589
15,0.11351890377547093,0.8842919009163828,0.32408452725632053,0.4779993635624813,0.15007284215654332,0.627048440857484,0.5872313621263575,0.5459628868397649,0.726405818590248,0.8362678659526921
16,0.0838425005628939,0.8877998770242129,0.3477793280201347,0.4328422584882471,0.21450672652440533,0.6786647942312423,0.6505932476329084,0.5148827777113567,0.31068235269015737,0.8240205608863963
17,0.05952135229870314,0.8798746732364495,0.3594606858900951,0.39040067392770955,0.27414851414745384,0.5876060589832199,0.6925842901471905,0.48482460971976654,0.11372489777803212,0.6843830303835411
18,0.03629967306190606,0.8662592993864994,0.3570505178830625,0.3477405758212869,0.3311017445261412,0.5254698047429763,0.7118537766143429,0.4558565673425634,0.04887290711791203,0.5875836962844941
19,0.015970504593472084,0.8472828898146068,0.34153385787551016,0.29608374116881253,0.3827296901141603,0.4947416789394146,0.7097907001473808,0.4280408736793566,0.02992546764010488,0.5151196658787595
20,0.003637952608956214,0.8155204796677338,0.31935730175889754,0.252093653732886,0.4283591674539959,0.4954369629068578,0.6916235744012584,0.40117344054193,0.17046214850369318,0.4785982981549469
21,0.0,0.7689865420551707,0.29517544903294834,0.22519555581719022,0.46857332534223683,0.4807901553364283,0.6657147275852983,0.37504442642052904,0.13059177556056864,0.43446420400494784
22,0.0028219065935197545,0.7068810630524789,0.2666683349092687,0.21129293383939463,0.504041110868286,0.5110373447564651,0.6330382209197596,0.3495213318791907,0.010570732069432093,0.3958602705301205
23,0.00836022717171905,0.6319973658549126,0.23389678940239605,0.20941261290460522,0.5397910921827409,0.5258691484941168,0.5912668493005396,0.3245132259355061,0.6268828285459868,0.325837368581477
24,0.015102187791038817,0.5494995660201487,0.1866636097450203,0.2135191331994418,0.584354006398561,0.6343536735012507,0.534648815658337,0.3000612278741164,0.4230020556421281,0.3000104161364133
25,0.02651636900402057,0.47062023471764897,0.1216233966072996,0.20983570737724638,0.6412461164093025,0.739286135720353,0.45841787321837163,0.27631214563663925,0.1077621083048258,0.30731915301335755
26,0.05166979198233961,0.400595614892369,0.9877250644696742,0.19604056838715928,0.7071417530132109,0.7968132373084248,0.37015854384525476,0.25342807985664084,0.3532699284794532,0.3716986799507277
27,0.09960879888052442,0.3322137057798469,0.9900090254643462,0.1734359347246573,0.7775933973767835,0.8203731567572909,0.2810193618252409,0.2315581645774562,0.17386549109455646,0.43887709643976064
28,0.1676676146894612,0.2629492237629561,0.9147715402768384,0.1479909848861435,0.8391984800041882,0.7497372870867861,0.2028244087500873,0.2107825348141655,0.003200355033649778,0.48081422977678995
29,0.25532917820578077,0.19160939923497858,0.8483106565962697,0.10114573854431828,0.893396793982595,0.7188598506594243,0.14155757004173275,0.19118189606142225,0.062272595325680635,0.569469152366459
30,0.35837772103499177,0.12170391738870759,0.7924101056715078,0.04954036194117993,0.9399069299978591,0.6940136893602401,0.09384943014922521,0.17272871195670844,0.15847959501874412,0.6103690785064416
31,0.4695350259530831,0.05782898366411395,0.7482876989536394,0.014042211577037696,0.9783575697518616,0.6479511176216455,0.057326111654314844,0.15529558372680524,0.15842070249705398,0.5811095685841208
32,0.5893962950122319,0.010469598984447165,0.7134436015146837,0.0,0.9999999787709392,0.6719627526298034,0.030297322815233875,0.13875252647085815,0.26763575521957,0.5712564205377663
33,0.7167866031519833,0.0,0.6875723135566656,0.00450240885139241,0.9939117957724964,0.7044575990138421,0.011580348634382063,0.12302649316839231,0.1074387949913226,0.5821066367583013
34,0.8512997010283291,0.05493752835362018,0.6710773362238529,0.019863072910256355,0.9839977010355696,0.7356925302811448,0.0017865602456883796,0.10811785672039576,0.32199613934847676,0.6969867516032229
35,0.9999999983831287,0.14644803417377725,0.6648209746172903,0.0351900157518695,0.9739192522233895,0.873835409396516,0.0,0.09409657381472328,0.0,0.8897754570303679
36,0.832539745168081,0.2394600018358021,0.6734541665295072,0.0476681698257128,0.9511234419922869,0.9482704833606831,0.006307807587345298,0.08104188290631974,0.06870562985268625,0.9999999968587008
37,0.6598899334055796,0.3306918146081726,0.6991804026415038,0.05351105113238452,0.8890315468598546,0.9999999989944995,0.023254146640428092,0.06900051914293265,0.6965937106424916,0.9984762934322909
38,0.5153459054341061,0.40614406642809453,0.7364730557116161,0.049374412492581045,0.8273872522581514,0.8674156002371776,0.04982950029998174,0.0579769916754402,0.6612762687294186,0.8440805184910364
39,0.40162280599060723,0.4644880481780194,0.7799285647049302,0.03564252169127325,0.7729351950542817,0.7297438755626616,0.08274019013095446,0.04798584197711135,0.09228600569600746,0.6588084024073587
40,0.3039782534843395,0.5216049704105917,0.8315441330110975,0.016630749679643633,0.7213891559534654,0.7196386900337346,0.124239134894572,0.039007974171054144,0.6541542092475959,0.5747205414540211
41,0.22962099204119218,0.5795087246121965,0.8846489563800051,0.0016376869090007316,0.6774698670987482,0.6088126302131128,0.17447724809754372,0.03097619125026476,0.3877919063374953,0.46648029579858824
42,0.17216830069066819,0.6351783603599405,0.9399006948726476,0.0036345195574195195,0.6381976886452084,0.5384891152510424,0.2291359606425633,0.02382936240842958,0.19438659316661164,0.43924469331393157
43,0.12592569073771362,0.6850555836776384,0.9999999896946431,0.020807907561974665,0.6033884836836071,0.5555366332546813,0.28867488616885406,0.01753714099539152,0.08237144798933355,0.46518887122461094
44,0.09443362515218917,0.7248959419630704,0.9993720030618146,0.05245139658024134,0.569980906027005,0.5297120332674897,0.35236920144469075,0.01208185550995325,0.0988745342081791,0.4610231194044218
45,0.07663578490727907,0.7577228418191897,0.9324113412545492,0.09207124513532551,0.5314079137439417,0.579798066780921,0.42264689495365326,0.007510350425101551,0.12817005383972793,0.4384455065769863
46,0.07519535945582824,0.7933751713419773,0.8634613383357281,0.125710919870405,0.480957484988528,0.6500424077850747,0.5072909697312431,0.003935626437253125,0.8015566219321373,0.3301573290474652
47,0.08807336757897119,0.8310508307590114,0.23154929894261306,0.1512550699502877,0.4220061838980249,0.7024085179193378,0.6056438342104379,0.0014886406380237541,0.4200868900948778,0.21163480420346126
48,0.10927835122894859,0.8725704073625743,0.28404173963205415,0.1673031484290365,0.35201826268422814,0.7237493347779228,0.7102618354136444,0.00019478290086250472,0.6302231012575022,0.048331812947626215
49,0.12815214165603658,0.9080485384676852,0.31877305802903966,0.18129122607152892,0.2863336757474539,0.6217574306476497,0.8065156573011828,0.0,0.49835474172317895,0.0
50,0.13849519233200272,0.9443861844601109,0.3346490888092234,0.18072773844064513,0.22924660599615201,0.5638938033389572,0.8803090639081431,0.0008507006315541486,0.46933076529562473,0.005133603696122972
51,0.1421351532105049,0.9767723114550391,0.3352604142894159,0.16368574382658657,0.18055232021466538,0.5101487888881526,0.9296583997623009,0.0026976299930572974,0.5131857456761838,0.03509549777188937
52,0.14632859364180661,0.997096539760542,0.32989293402875386,0.15359587184326376,0.13819754320335698,0.43512103165763155,0.9601796652834419,0.005483049561264161,0.4898786810562073,0.06563675784089387
53,0.15532803689326907,0.9999999955354485,0.3244093170920198,0.16307807743684408,0.09934114048442681,0.35532260935546606,0.9794229439978125,0.009151239064366117,0.13736031918656036,0.12065346066127788
54,0.1675857779181005,0.9863448250598618,0.32001692803092086,0.18852723862481777,0.06449148892684597,0.3164768037035398,0.9926248596261293,0.013658040292185068,0.0949139673174913,0.17662657780082228
55,0.1843727810190491,0.9582079799577301,0.3139122648976114,0.22751821482711015,0.0441871128908095,0.30104560851536655,0.9999999886995895,0.019010536865809117,0.08848364905284448,0.21811105942313158
56,0.20488606760985786,0.9244937273356093,0.29715564742359785,0.27752146780243375,0.053163001311700715,0.3497256403846424,0.9945060925942338,0.025269399697763213,0.3479521037824788,0.2607607392236075
57,0.23315439431022023,0.8888065097481088,0.2645362359714756,0.32854722729070646,0.059853932209704246,0.4513560274395884,0.9660521379787391,0.03250806487272141,0.03537794942899054,0.30598247931736294
58,0.2780388580279914,0.8508921291791068,0.21925317327977564,0.3734786017659429,0.054040442104645946,0.49811226119612406,0.9103288596214726,0.04077054042052349,0.33577006554086836,0.303201102290678
59,0.34208578461993244,0.8024103344944905,0.1721113746431422,0.4106525136978447,0.12009191115132764,0.4742417901018905,0.8368855227949729,0.049971932529686285,0.9999999998425836,0.2632576215062324
60,0.41404455341216356,0.7519407674448141,0.1316301675063535,0.44515889465791686,0.1795386642161602,0.33192451278660495,0.7615180093934252,0.059995057782810016,0.4909945297146994,0.17928644579621048
61,0.49227354036913873,0.7053555819361556,0.09746631108375983,0.4733817821184657,0.2336915911792507,0.2557845679311053,0.6901521545070242,0.07074578424008245,0.3246091262266788,0.12774084348733014
62,0.5716107162432261,0.6626493957584877,0.07106916399559586,0.49787483059697696,0.28141096611630984,0.20111897814735322,0.6226482012582896,0.08213356668561006,0.6282058496605798,0.12016540927500806
63,0.6406090682605258,0.6219700935215422,0.055272636140427656,0.529569463347107,0.3223966134684697,0.09129892352838441,0.5635987215726278,0.09403915894254017,0.3651323195701713,0.11315958278937535
64,0.7007657858274696,0.581589295254217,0.046605346985606526,0.5706367272003526,0.35840546109170657,0.037298519244382274,0.5135279939261367,0.10636038733561522,0.2334991527180658,0.12410613069078143
65,0.7522968275251257,0.5406701594252461,0.04347967061555681,0.6220790294821325,0.39183330726880633,0.001989087890630457,0.46890717290694406,0.11901887857165622,0.09182335779086234,0.1298168124597217
66,0.795952060138125,0.499918887792549,0.04540127912508183,0.6804868925031236,0.42815950225875865,0.0,0.4290148997743525,0.1319434974355549,0.1575524895679829,0.13100365910886547
67,0.824175355444926,0.4639672209611715,0.05399884444817188,0.7361229341545273,0.47429704733738826,0.0597303935271199,0.3915313968654274,0.14507912748150598,0.16709888025274497,0.12552997550328188
68,0.8197462133732228,0.4345754827085305,0.07165179370034855,0.7922631175338349,0.5291871993561954,0.10804961786855367,0.35682063763475347,0.1583206099202629,0.16709888025274497,0.13619909858106727
