Frame,Center of Mass distance,Symmetry,Grounding,Arm fold,Leg fold,Kinetic Energy,Potential energy,Bone length coherence,Torque,Center velocity
1,0.8915770119981924,0.5926538206783815,0.02731918595656455,0.9999999047184538,0.43326376376081643,0.234105075452974,0.1291863412570579,0.9999995038765976,0.4991630514081835,0.6128072841311746
2,0.9456405695514297,0.5886119491143958,0.012572386430832303,0.9788998970747246,0.40174414374036754,0.234105075452974,0.1291863412570579,0.9705055855843544,0.4991630514081835,0.6128072841311746
3,0.95868674354525,0.5843941956103754,0.0034952690938658947,0.9680419330916058,0.3674157987911533,0.3101436728770342,0.10917871769886177,0.9371161675235411,0.3884623629711336,0.7307705629967616
4,0.895257763820466,0.5921404114400849,0.0,0.9488200658632377,0.32333520687294776,0.39197902592717065,0.09111508446486968,0.901640798465621,0.37399806187585594,0.8229834572424191
5,0.7878691559669686,0.6155444488938295,0.004702164084399648,0.9177377347052084,0.26750083623737203,0.48098158614862896,0.08053866135396742,0.8646978734384096,0.1365938209487772,0.9209692334402745
6,0.6674454143071711,0.6528576536938799,0.018416421691147676,0.8695176153459865,0.20203277013605372,0.48468845986561154,0.08329341460304264,0.8276007536493953,0.5490638585204737,0.8822735517020307
7,0.5538771885114716,0.6934836082776706,0.040579741092105256,0.8129652658679936,0.13613301147554685,0.4119317555355852,0.10272638736151482,0.7915702583822111,0.32381197259297084,0.7401202979825474
8,0.4580810526648817,0.737733634496578,0.06727564270799664,0.753095541774681,0.07869737862027285,0.35189754432805337,0.13705180989633992,0.7569482970756833,0.13576408698775064,0.6684658383289589
9,0.3748219077052794,0.7856888219495376,0.09738318291108507,0.6867963727884576,0.026582139714805938,0.3493300563420427,0.1831406608341663,0.724157199722455,0.15566504650633864,0.6359858047462934
10,0.3066201402968876,0.8304373424902235,0.13015808405858875,0.619530955537046,0.0,0.3589257400786025,0.23766286677073528,0.6926028319264066,0.3763496482990076,0.6484708379855344
11,0.2516779449206882,0.8674027637741958,0.16631017949933283,0.5668023803459994,0.03139079839709146,0.40822237927509347,0.299906718608173,0.6612474141833973,0.6823890587656564,0.7205864189933457
12,0.20748994038729862,0.8939710302913383,0.20751987863857482,0.5299895853363201,0.06172682599709319,0.5004834451711683,0.3730117971315638,0.6293654899810094,0.4016650118470714,0.8101913572274758
13,0.17562280154214438,0.9092092672001326,0.2509080150181066,0.5103455027587442,0.09459211012843743,0.5576033853167984,0.45666467827371365,0.5967488431973273,0.4969923674868396,0.8515928473980557
14,0.15253669602414352,0.914667032383198,0.29385994374910274,0.5023234838938568,0.13331467414008147,0.615546242975197,0.5461612998500853,0.563715060265062,0.9862432665439164,0.8659231404571955
15,0.13288327360157476,0.9151258314487971,0.32980403992990825,0.49097083508587513,0.18187016665238856,0.7125124096549981,0.6314350924851992,0.5309046614852774,0.569546430219771,0.8967473935707636
16,0.10718057457302882,0.9136684049134493,0.3506689100523323,0.46565234988560505,0.24386033919602595,0.7398903588880363,0.6974641635967598,0.49882853866582383,0.6597517475097654,0.8729995014585438
17,0.07764989758666847,0.8999932519443109,0.3574305052457182,0.4224681183357226,0.3110158728939561,0.7644389001680599,0.7354967543655812,0.4678313487016659,0.9999999998339367,0.8060078771105293
18,0.051749538300040754,0.8811413353115326,0.3506875366658948,0.3724820373466102,0.3689363757254374,0.5842047474549221,0.746496460191687,0.4381669700643922,0.15591732390900737,0.6073432362651797
19,0.02621896710264199,0.8564825188406094,0.32885529536025443,0.3255975427317713,0.4240776046543489,0.5628839067683111,0.7337556204865137,0.40983884542442683,0.17088577825173468,0.5319739628896504
20,0.0074397714221147585,0.8236845179853273,0.29571098463848067,0.2693699716997595,0.47284198403253674,0.5593433397882243,0.701047576577957,0.3827590679872398,0.2652321083732656,0.48435799934606794
21,0.0,0.7771515476728127,0.25931957456629334,0.22350875486307645,0.5143460879150419,0.5272320774231485,0.6564931146395416,0.3567047784022316,0.12955221091990615,0.4236464441280326
22,0.002954027288321612,0.7142375496797918,0.22199556132941373,0.19524764387905305,0.550443618436631,0.5288195899203133,0.6073361040732341,0.3314548316431412,0.02354005012552194,0.37945882556259597
23,0.013087322805898772,0.6375553573393983,0.18164186465168292,0.18913406099460192,0.5835976563494758,0.5518262264981088,0.5531754331678836,0.306896883888686,0.03862315018199763,0.31998955726883166
24,0.027740986367081374,0.5563812825377942,0.13615941957632588,0.19495845460509598,0.6190437519122518,0.5851465713152255,0.49179780213411506,0.2829837834874775,0.6284932422395714,0.2595018991986421
25,0.05112840372427073,0.47864578272162017,0.9274950599613546,0.20399730324744228,0.6627627387617092,0.6999888745826427,0.41898396749598854,0.2597769035242406,0.6904894646580872,0.2642342901167526
26,0.09036094745511485,0.4074127579630006,0.9999999899568132,0.20107113042603583,0.7175618223153358,0.8144354600085634,0.3354577810618702,0.23740237085873667,0.7911621378947816,0.3727236097822228
27,0.1560050287141384,0.33973126867371006,0.9271070187931442,0.18849667942084447,0.783405131438739,0.9143380170847784,0.24963800324065896,0.21601366473942923,0.05330374468277253,0.5444585481460147
28,0.24778616920499075,0.269529121409484,0.8503129175750654,0.16603070075023207,0.850428712060671,0.8970608517690792,0.17003704539999162,0.1957218080089445,0.21483598763521825,0.5795116077299105
29,0.35692913130221515,0.1949324126404411,0.7867558641085661,0.12934184546205998,0.9056505793601497,0.8315796853470864,0.10726876593257284,0.17657630224496135,0.1756005757619742,0.6716159346755745
30,0.4804602034566408,0.11854797316506004,0.735749681840121,0.0794126368703579,0.9547968617812359,0.7889773568144097,0.06363909562975816,0.15861725435796759,0.27562016662929284,0.7361666595684544
31,0.6107041218643642,0.05262574357759437,0.6980085370473791,0.03105129831735358,0.9926126049529265,0.7296844711557564,0.033085546979772666,0.1417853557682387,0.014011359367574906,0.7166996771926029
32,0.7471866991091356,0.005653735816739877,0.6715276682301973,0.003227149239990479,0.9999999797404192,0.7204551139205002,0.012758686168546004,0.12593849441837493,0.0009428566897132482,0.7038357869704082
33,0.8795559039619328,0.0,0.655952631850069,0.0,0.9842661593537938,0.6819259467412638,0.002084505237677253,0.1109669738588454,0.2156652733001829,0.6477222548189434
34,0.9999999983180218,0.06494008813564832,0.6493555036779864,0.011065622426713677,0.9719021385843205,0.7115889837490069,0.0,0.09682266294475536,0.0,0.7008453646634818
35,0.9433932716877373,0.15609420043808953,0.6523510615690701,0.030663082120433817,0.9573545678639106,0.7388350966511881,0.004822768114119744,0.08353080582216695,0.398997474966902,0.8052573501007761
36,0.78765359005263,0.2526854557549574,0.6682712979062151,0.046704322257163394,0.9148310186746272,0.9090102598511671,0.016806534733396137,0.07117686305180758,0.28890506797822935,0.9999999965748191
37,0.6335227503441063,0.3386566876151582,0.6978388057665743,0.05483673217556585,0.8614126293259814,0.9177389526339227,0.03769684124722432,0.059842091251259416,0.05382083605590923,0.9801507575434038
38,0.482568544787578,0.42128440542883966,0.7434850654337221,0.0525140833132992,0.7947246011743468,0.9999999989819232,0.07098241425643707,0.049552936772221785,0.9727632929678187,0.9365224045052435
39,0.36609884278348576,0.4877359975236398,0.7940121353426187,0.04698768447146404,0.7359276043342405,0.8238130295393453,0.11436062216362357,0.04028923656821561,0.5882081021090485,0.7339546236466703
40,0.27777949036606,0.5447126143465355,0.8469560033808694,0.040552317644370145,0.6837504237135776,0.7197006111475387,0.16326441611723613,0.032046819710290074,0.08662510549330997,0.5606782874782865
41,0.2060701290879938,0.6046172945657682,0.9056320473905014,0.03090922252015626,0.6346716117217654,0.7214669401800353,0.22189299521349146,0.024808151614150717,0.7246904581672193,0.45973378852909147
42,0.15555805358078492,0.6614504626674642,0.9628991424758483,0.025126951244732017,0.5936279310074901,0.6193017927138972,0.28882265267660223,0.01851669250878392,0.711801875603113,0.3802336774367416
43,0.12231846537459382,0.7099927668363429,0.9904310204534822,0.037233805281484275,0.5577227278590934,0.5142822050686392,0.3564457274682462,0.013108486744807059,0.3981789536640019,0.3433791427823929
44,0.09960964289209655,0.7502162671585645,0.9313319032970839,0.06891756632058833,0.5256684013397643,0.54086438942108,0.42646587487835463,0.008560759090150314,0.15730861199425988,0.37386825055179407
45,0.0913371470341657,0.7788139999821108,0.872272848300979,0.11405731639563896,0.49236065069880347,0.5156195597568393,0.5006659483435413,0.004879702178847896,0.5220775757019107,0.34412946147465123
46,0.09625591369093411,0.8057949092644687,0.19355328520221277,0.15864161555119988,0.45275429007882834,0.5910282685349348,0.5822953785175107,0.00214451320346176,0.6873843293520988,0.2956921769912594
47,0.11374197715959146,0.8383407295398301,0.24980229142540922,0.19385507965054372,0.40116768739662967,0.6571696244290152,0.6752465530539188,0.00047515430341563884,0.4604995143781756,0.1690317601164634
48,0.13647652617418474,0.8752686944632256,0.29367111894430203,0.21294458948466477,0.3401001867870266,0.6910608850517671,0.7723194503550722,0.0,0.1805286464275277,0.036137715119449944
49,0.15613774763674024,0.9120890826797576,0.3222872476150678,0.2217990636428511,0.2740464211076203,0.7116974913929547,0.8627741032107031,0.0006819556449762865,0.9694747364899859,0.0
50,0.16744162198589507,0.9418985645334208,0.3334204965606232,0.22723637496056684,0.21626700725515152,0.5938156038368138,0.9329345327618418,0.0024573612521834737,0.32592764709196986,0.029911676470531716
51,0.17079737004382675,0.9721181959557793,0.3292865537581943,0.21572488680468915,0.16625020238679825,0.560316028907929,0.9749949374401654,0.005271216989205706,0.738323472827419,0.03337980571670663
52,0.17405858728580073,0.9926398213417987,0.3164593039559343,0.202133735022632,0.123064459140267,0.47079636912344497,0.9941976836134989,0.009052378307256333,0.4496401621286961,0.05555819990423416
53,0.18175223602613833,0.9999999954803085,0.30252488874155814,0.19955805484560907,0.0855200621420118,0.4028778806537024,0.9999999885346083,0.01374817022435946,0.38373146745426323,0.09723294177851637
54,0.19497808154672983,0.9907582706145442,0.28996149438312874,0.21333770373812044,0.050784155139813054,0.34175844768677455,0.9990751481382147,0.019312485181395042,0.21962820490805626,0.15691919053057063
55,0.21277989109331746,0.9641599668813254,0.2793456593938066,0.24944567251124788,0.05713324832605736,0.3005798436651772,0.9942804316209265,0.025708954880747308,0.17140422965198995,0.21250956663919862
56,0.23653682921376376,0.9267168144190907,0.2651678929516524,0.3029362315272833,0.06778813576650829,0.2890164987748335,0.9828816811136443,0.03294583289335772,0.3400818135596666,0.24294240330570022
57,0.269289563937418,0.8870388660141668,0.2375406008931015,0.3624627414504444,0.07451636545740187,0.38218122013587014,0.9542905158241006,0.04107866228221628,0.21657643957133108,0.27835196829325703
58,0.31935614070272667,0.8447087135840217,0.19728580954123628,0.4158644539769473,0.09189423894132616,0.47166805889869295,0.9006484621413724,0.05017661156320405,0.14097743228456147,0.3021415765063108
59,0.392974766509939,0.7954709246423067,0.15273785270362858,0.4575282399715571,0.15517576478580855,0.4956265789571641,0.8267190416015081,0.06019864544963468,0.9450153657845245,0.29031368784805306
60,0.47571264980477485,0.740445325120844,0.11560294939818776,0.4906990775711933,0.2148585708860025,0.36649778805809774,0.7490530803737458,0.07104060897122151,0.6566212312297403,0.2009971205838522
61,0.5600214719883648,0.6909361483172868,0.0857013478236578,0.5181145641439715,0.26684857166491033,0.2688922136828611,0.6778089880950642,0.08259957127253932,0.34308417529235713,0.13253194611106317
62,0.6449646534235969,0.648053326292175,0.06306778113591684,0.542032210125168,0.3141842938742102,0.21835959571859373,0.6118328941775502,0.09476049490517514,0.5495754017449113,0.11175661445244198
63,0.7184875450468802,0.6115404733312912,0.04943220354014744,0.5694667078444776,0.3541970461406072,0.12375607458059286,0.5529959942129961,0.10741287449190182,0.4580358039806267,0.08177163912422168
64,0.7776448446603622,0.5768721006647053,0.043403715001784006,0.60709743644657,0.3888569185115869,0.05235994509272549,0.5034380290847159,0.12044376917694649,0.30072268832273313,0.09160486384466081
65,0.8238559746027383,0.5430631748779037,0.0421274931500765,0.6579481775560011,0.4181584025631489,0.012915417082585,0.46014275445084596,0.13373907410226046,0.14265283221323338,0.09397822792001846
66,0.8585875443984763,0.5071332905219614,0.045638350826950634,0.7206330835431402,0.44909035153062893,0.0,0.42139853231481994,0.14721332309622634,0.14265283221323338,0.10199529663484398
