Frame,Center of Mass distance,Symmetry,Grounding,Arm fold,Leg fold,Kinetic Energy,Potential energy,Bone length coherence,Torque,Center velocity
1,0.22941856171264732,0.8687851760025346,0.0001644373730602783,0.14697318318787841,0.02616046417358589,0.0008286545443112466,0.7656412212923542,0.9999977513456721,0.03007495627590999,0.004833524856514221
2,0.22920359111298047,0.8686661163154122,0.00017713887597927325,0.14781958086090788,0.02606484094445619,0.0008286545443112466,0.7656412212923542,0.996475604688103,0.03007495627590999,0.004833524856514221
3,0.22886915477919906,0.8690537956409946,0.0,0.15004192707363978,0.02652655087766476,0.0,0.7660897537442182,0.9921335763660282,0.021406839605196116,0.0
4,0.22813597575331845,0.8692471090593884,0.0002288205022852266,0.15160743465281962,0.027260706675393917,0.007420024056437898,0.7667728216144254,0.9876161412697996,0.020439960851749445,0.00959693011791377
5,0.22752323947208472,0.8694775414556736,3.690817481497954e-06,0.15493376578270396,0.02732179176217803,0.009637885649616599,0.7675493769939533,0.9826960938900284,0.024688036733870156,0.012574356987716863
6,0.22644759865961603,0.869494527749333,0.0003836210236318615,0.1578992545842646,0.02790331415684999,0.019154856694910537,0.768537420553724,0.9774597039922535,0.027544466185281564,0.02430823026116802
7,0.22535128504232785,0.8695367894946855,0.0005849207544622578,0.16088564601273855,0.028612286280902666,0.01996853225129789,0.7699298036102709,0.9718423215263357,0.024875543577847152,0.02499656385660622
8,0.22395230126204183,0.8697353840145372,0.0007986878122058502,0.16432248069527533,0.029477472277811636,0.02431713681893749,0.7712581067731848,0.9660175669899264,0.07088539545929383,0.025958205485060684
9,0.22152215500972747,0.8699811046075633,0.0016677200602169331,0.17021502195224594,0.03154148389586332,0.043997759675639084,0.7730525179410003,0.959764875531758,0.0211557762822453,0.048142654238312786
10,0.21897673647555466,0.8702504087647741,0.0020673770494579313,0.17585850319129157,0.03350670525586332,0.04485863448856139,0.775008287214027,0.9531757151397261,0.020728842960807348,0.04625049072342151
11,0.2162402987045526,0.8705007298078922,0.002532918948829998,0.1817765122527511,0.03568684926281971,0.05042116521205409,0.7768393089852927,0.9461213929788037,0.06266183772389154,0.052488566080724455
12,0.2124314940700152,0.8710913070857919,0.0036609244052542155,0.1895036449299545,0.03935602257997067,0.06613814568805586,0.7794157474497909,0.9385927684390906,0.03425773954515765,0.06507327733028107
13,0.20718035826542283,0.8722633436842474,0.004904556809894237,0.19874129327805598,0.04571971635176157,0.07546416836809011,0.7822553360418698,0.9306930157013673,0.04383370203550521,0.06590253835872886
14,0.20066213339138947,0.8739428850548645,0.006802171527553067,0.20990917355629196,0.054677190575565485,0.08942408240188734,0.7853131768870494,0.9223120383576991,0.05301973300000409,0.06986828793717223
15,0.1918965353448113,0.8764750032227054,0.008455118136278581,0.2229578461724532,0.06832731063278343,0.10592757555075802,0.7885879486414756,0.9133719817421636,0.08035817244863742,0.07322480855199498
16,0.1809696633959774,0.8795653137909546,0.00976745574468391,0.2368250010849674,0.08647190418501702,0.1258851931486767,0.7910942068354077,0.9039672227381426,0.2167016354700495,0.07684592708325116
17,0.16765864669464722,0.8815809586039409,0.010997037588980652,0.24966044644033267,0.10808507350922615,0.16976441016778324,0.7935238175753418,0.8938873924274133,0.05276785130196271,0.12288471217574871
18,0.15549839122084919,0.8826755059775653,0.012318085526642184,0.26885667027877386,0.12847490852879925,0.17275300298035387,0.7967799956455165,0.882736615800605,0.10161546223507728,0.14675931310283144
19,0.1440695437596838,0.8819776687958679,0.011798311518814828,0.2872793779463644,0.1459795678780708,0.18952664381507067,0.7994966479220726,0.8703566006375077,0.13199597384757614,0.17976402653628434
20,0.13288498742450947,0.8794292606847889,0.011271242419331043,0.3063772818077304,0.16165000765418217,0.22181080263059483,0.8017904999774932,0.8563854367256888,0.0987461315825871,0.22717621145614947
21,0.12161130346175157,0.875785672978438,0.010616476125771317,0.3283928825535187,0.17655532190414402,0.24821649478271948,0.8046513220075069,0.8406897341987711,0.2212965046926748,0.25853423554409305
22,0.10998041455194871,0.8703465988760131,0.010374271955680995,0.3529441348026471,0.190457051066061,0.2949575596528675,0.80811631960545,0.8231140536258266,0.22774468707627252,0.30890413903603875
23,0.09765585026222176,0.8634999374832992,0.01036608597704623,0.3818363866564413,0.205198674391712,0.3437318073592576,0.812109618601502,0.803463256796532,0.40918541778966677,0.34920494004960756
24,0.08296127246769715,0.8543293364668946,0.008255503454532864,0.414551976758538,0.22568697427809303,0.4130147161812958,0.8140142769420614,0.7815906954870274,0.3292558343536449,0.4005811804234796
25,0.06665403208479286,0.8421228523624874,0.001989818974519788,0.44857041430757333,0.2532508492586553,0.4649445920333627,0.8100319775662105,0.7575277649229453,0.32622071723168883,0.4307422749198669
26,0.05003074346213093,0.825506689004006,0.012608555407824688,0.4800370489997256,0.28615173065730704,0.4974787872169569,0.795603306368364,0.73147852574166,0.5681610104080901,0.44291252812853676
27,0.03390844148825338,0.8024326038642046,0.9635518437669652,0.505538666236885,0.32356925891633764,0.5579356718530453,0.767900112184984,0.7038730787240838,0.5309231433773277,0.48879903643584754
28,0.01872541253455165,0.7724799610723695,0.9317851558814115,0.5255594302330093,0.369056712350479,0.6245624258260148,0.7283302185878703,0.6751289231625106,0.0639121837775206,0.5211692472201099
29,0.006600673539984267,0.738162040126992,0.8971063468228081,0.5443015463087596,0.422766193163832,0.6254044057717969,0.6824443492708896,0.6456215402182187,0.06984281391662239,0.48717676149523137
30,0.000816552665046224,0.6994724507178804,0.8598903832841408,0.567000076420327,0.4810939565915554,0.6250211352335805,0.6344856504357371,0.6157258419770012,0.025867956308880197,0.44754866704550605
31,0.005824763374213165,0.6570178435389759,0.8202367798862752,0.5916017331586363,0.536053253609354,0.6188753465520024,0.5853291280672086,0.585733027767779,0.031369388661957966,0.4145694579723595
32,0.022629632075943845,0.6101660227948803,0.7789986499996162,0.6204040063678179,0.5853204075348288,0.6201236271442715,0.5355255969498907,0.5557798937663052,0.0971414294036351,0.4052872029657967
33,0.04883207300573132,0.5600549729497554,0.7392289869370026,0.6534554742203657,0.6309581930857421,0.6096643695852776,0.4864005212920135,0.5258279103305976,0.14931796679997797,0.36605515220456575
34,0.08087016378808647,0.5101232832949232,0.7036011643428691,0.6900167016523464,0.6706571789967836,0.5792374188681482,0.4411671983477517,0.4958512295298749,0.06370021181518742,0.3144235797718184
35,0.12002030382017446,0.4605986595397349,0.6688542100666011,0.729702692242227,0.7041196864996921,0.5820527287481528,0.3990419952546999,0.46583933866882604,0.08684718054481672,0.2881763509285404
36,0.16497017426949512,0.41346879713610557,0.6352342736349069,0.7705910038010386,0.7323440773391736,0.5899644767993295,0.3587781271773003,0.435830989563899,0.37340510777827457,0.2930238006775807
37,0.22148753763635998,0.3641481565413984,0.5988310841042678,0.810895943136654,0.7607449669331913,0.6529687502722564,0.31929680355463014,0.4059159432766394,0.37602403566055465,0.36553513801690857
38,0.29366773844628885,0.30766333369728277,0.5591126750422104,0.8482208852409913,0.8011880100194473,0.7356967670816255,0.27856044902886945,0.37629157331835117,0.33653326069782497,0.47415798235196294
39,0.38165727249430376,0.24524748793327125,0.5182975688375372,0.875681844173149,0.8461852805473756,0.8122374020235096,0.2391195420491451,0.347272559186584,0.25472900769019446,0.6570766736821175
40,0.483390413898473,0.18062904882363373,0.47943766937558174,0.8874573559878346,0.896872703400111,0.8811773101742679,0.20402962525539958,0.3192161810786383,0.044117201613256676,0.8231589793460431
41,0.592031589206119,0.11843147574424769,0.4461220599356696,0.8885764120899381,0.95519634711787,0.9044757783909501,0.17461658971464972,0.2922840087503956,0.11443809591150647,0.864583419727169
42,0.6939947201563152,0.06716785373397213,0.42203072481360726,0.8893339344677402,0.999999974501384,0.8654753535427829,0.1523779263922172,0.26654234382116754,0.09406518167249771,0.8207071045138714
43,0.7766962378795157,0.03928898915991514,0.40701796580757515,0.885184256229498,0.9701598716208819,0.8247652095321141,0.13806542810689484,0.2420804088343703,0.07917627123210504,0.7987633152199113
44,0.8222357786430716,0.04749285674727519,0.40019428063219226,0.8778056910259598,0.9358833792770511,0.7840524321471605,0.13109855896343497,0.21891954579624656,0.06164642813824255,0.7581208718668632
45,0.8222614136233353,0.08538763772392048,0.39958073949720485,0.8697586109894649,0.9043636638577294,0.7452759429200072,0.130134166938183,0.19703161081446297,0.04056144600930531,0.7148243632548383
46,0.7768272647188514,0.1351443286176963,0.4052462512376874,0.865830931799278,0.8761542187363521,0.7137308728683041,0.13456677638246367,0.17634368434552314,0.029395375771070386,0.6821797667316754
47,0.7128841828405196,0.18933223081898679,0.4153441242356601,0.864283617789656,0.8508286523368435,0.6876258443463116,0.1438014496964377,0.1567936241886074,0.027178108271631127,0.6733188311557031
48,0.6407976017099659,0.24749000766034362,0.4297024936660548,0.8656933617506025,0.8242859742823705,0.6906817030906535,0.15652068094828112,0.13834764231859126,0.13119973620215,0.7078722444393193
49,0.5645680735506653,0.31103751351948006,0.44844565608008197,0.8699099294128216,0.7971267974294438,0.728194146524063,0.1722314384538619,0.12103794310918378,0.20220775546918415,0.7724512779295412
50,0.48205442003099214,0.3815800182575673,0.4736916214522623,0.8744523791092849,0.7657405186845283,0.7860933533141294,0.1917629374323893,0.10495071126730639,0.330683302389374,0.8394911287675855
51,0.3901421738460123,0.46127709809885337,0.5099671545150875,0.8763854988188583,0.7193640782897522,0.8729627937508239,0.21856748560711095,0.0902718395712226,0.07875907340671492,0.912722897540695
52,0.300891275055313,0.5414975153554369,0.5548647426615735,0.8712138532299805,0.6635965769350093,0.894498721065125,0.2547202221511297,0.07730645471887754,0.06958401358458799,0.8955344864035962
53,0.21826312839259274,0.6190789577311983,0.607343687359168,0.8502063523119487,0.5981767725664726,0.8961482616994291,0.3016275769440341,0.06629280185615712,0.621839428777521,0.7835022640352372
54,0.1555896258107664,0.6860309615612687,0.6602249057083284,0.8301295966027262,0.5292129280969238,0.8038573729524029,0.357268822758459,0.05714362217828306,0.5073867640910649,0.6539041935896195
55,0.11057294711844415,0.7424583815903485,0.7107978206244062,0.8129179735488261,0.4653608282199516,0.7272508622561935,0.4157033010052577,0.049802370532852316,0.5165403307382267,0.549748031910918
56,0.08133288912963686,0.7898057183002736,0.7559008320357365,0.7913729942893508,0.4102710263377781,0.6567922865151252,0.4735448866049026,0.044206415040584736,0.40346720395784413,0.44099296587643316
57,0.06392227123027007,0.8300424143892394,0.7956255333052518,0.7670298172238478,0.36374840851970536,0.60061889646225,0.5287947988235701,0.04032559060790193,0.3122166211026484,0.3749433287776528
58,0.055037930789268864,0.8647536328344663,0.8317658144524253,0.7433624062585474,0.3249225833612881,0.5547875487368042,0.5803257509912857,0.038103101261007404,0.3217043390613152,0.36204849265879546
59,0.0528114557380174,0.8939809658768154,0.8646304518131472,0.7215730701137945,0.2921099241939372,0.5064467289093764,0.6280625247690843,0.03747722057206063,0.19178851255730112,0.3385211949561961
60,0.05452186454346831,0.9195013047991719,0.8959951613125339,0.6981954660624907,0.26404601144035805,0.4818913503368525,0.6728132149971096,0.03842976662280458,0.29900967358441033,0.33741164733989676
61,0.06128535642300376,0.9437346410655844,0.9304139433706985,0.6749426130027908,0.23173982846333407,0.5281299432428741,0.7190324596668802,0.04094071949263562,0.056798777946351506,0.36033245717118273
62,0.07479756881185406,0.9634663659309008,0.9648791839120848,0.6513678723737939,0.1921908188288198,0.5380102650751876,0.7699907102188813,0.044993526675113624,0.06806066995055525,0.3362790846456955
63,0.09353450549541216,0.9792662518223639,0.9999999899999201,0.6316678022191564,0.15212713493259142,0.5455852032519579,0.8224601553513456,0.05061141854813235,0.3855182517024401,0.3645531625448731
64,0.11292572172228509,0.9899681197772822,0.9714346815623078,0.6069445757564904,0.11877407277211734,0.5019319525582491,0.8709913630725042,0.05783205528060679,0.6286506361565681,0.3194446300917677
65,0.1290653068727391,0.9951709873851508,0.9528896371399029,0.5740992168037753,0.09381054334018973,0.42354541320474404,0.9097566583331763,0.06658434903480762,0.4665488954497745,0.24073920380308692
66,0.13977440416508208,0.9953326136756149,0.9457339667501495,0.5303911443106873,0.07713572708762326,0.3706531327632969,0.9357229909825051,0.07669244030505068,0.4766549604589612,0.14536867800130648
67,0.14393642727672112,0.9919595494727476,0.9450131424598457,0.5393171655313673,0.07024198065260927,0.3086596632501964,0.9494246648763692,0.08788189278027314,0.3626544245000014,0.10485954315758869
68,0.1448416519955957,0.9849715698230836,0.9475991786357124,0.5556670303614367,0.06694141216908273,0.2539798458528268,0.9536071895620782,0.09984560149017219,0.3906399098582628,0.09639391209091673
69,0.14539635418523283,0.9754925493083476,0.950662221153666,0.566622103413404,0.06354336651980377,0.19125103830607607,0.9527009132374106,0.11222269344751327,0.45062616862220484,0.08637130686730612
70,0.14497273642298486,0.9656339666078431,0.9523297426733563,0.5701217696555942,0.06272316941859678,0.1227574125590727,0.9492944916186571,0.12457260437578863,0.2831411329153225,0.07688823376264538
71,0.14321989900239104,0.9574102399360832,0.952643818514072,0.5633786629515307,0.06530301514912565,0.098466424109429,0.9436739320357551,0.1365737490213669,0.0733198064468103,0.07299963554215064
72,0.14051614241880972,0.9510394684854475,0.04817463698897177,0.5475488805570198,0.07033614160553672,0.12649304360474733,0.9360821976684442,0.1478445069140337,0.29833865894259187,0.07845678206953198
73,0.13540030383031917,0.9465978260191158,0.04928628066969189,0.5245323321512824,0.08106747203715366,0.192629717258034,0.925966424254665,0.15811444233808464,0.4316936210559891,0.10455648345278461
74,0.12821155566206963,0.9430682836948864,0.05004111647943519,0.5024905086650474,0.09623990297177999,0.2718594756774023,0.9117559671561798,0.1671118378030383,0.46694443046359907,0.12077870770628743
75,0.11762099024500978,0.9390192288633149,0.048449951609957936,0.4816044390164669,0.11739567628478964,0.3533344595267439,0.8914375974831201,0.17465257135067938,0.6262608215483959,0.16529059874994623
76,0.10197390899151865,0.9300233089216802,0.03898217497242061,0.4645705312579057,0.1446290865085215,0.4235332994161117,0.860984778263583,0.18062810454151473,0.9979911310525926,0.2427094777099642
77,0.08078770753204635,0.9112188798265247,0.015820564410112908,0.4465600859549599,0.1785551801259287,0.5174626692489032,0.8163064315335788,0.1850145840907791,0.44708720723393935,0.409881202407716
78,0.062071280143488214,0.8848416557638957,0.01668427679016799,0.43206589155677094,0.21159493956035247,0.5561266437223658,0.7629117764636398,0.1880035205900935,0.20025390302103718,0.48218573502098494
79,0.050448283486861104,0.8570861966731355,0.04599726848778347,0.4200710718071753,0.23907424956354784,0.5245337075134548,0.714790201640604,0.18975111078154894,0.04863289477940142,0.4766619586205869
80,0.04292309854810723,0.8282897042785453,0.07586975757089247,0.41639506658880754,0.26641934943556583,0.5120065740730859,0.6749737376561985,0.19050609011173095,0.2707370742430804,0.47735239181682076
81,0.038263217063353,0.8005163900033638,0.10529076549653789,0.4216489287504097,0.29822361628068017,0.4745522649364756,0.638900399417159,0.19045127653550917,0.1833875039210757,0.42371541944005736
82,0.036041993404946876,0.7708971993796789,0.13310692452871956,0.43738330015135457,0.3320495894771383,0.4584161237155056,0.6056357874591837,0.1896485160543734,0.22781435858548668,0.4026080155694801
83,0.03609262039613966,0.7392825844438272,0.841254483662299,0.4612923725261303,0.36733760217228256,0.4382431460423542,0.574306542287097,0.18812436228086366,0.10821187088691296,0.3686859592804588
84,0.03839995211836389,0.7045422828029211,0.8170094272648296,0.4921570732307956,0.4037768595385487,0.4347289059015294,0.5440210464313425,0.1859152116582451,0.059457973051050626,0.36600926745616763
85,0.04380176400040354,0.6646849285737414,0.793765218752678,0.5284928271142575,0.43898912619560543,0.4559382820106897,0.5143105900046103,0.18307115914243846,0.23702400958763287,0.4073154906002554
86,0.052423271262418324,0.6166525373125121,0.7707694608010305,0.566780613100973,0.47405292588930414,0.5088809423922206,0.4843567385883796,0.17964435816759042,0.3207625464925494,0.4916842904103926
87,0.06377639954657269,0.5581648440837046,0.7484140215015461,0.6076610345355616,0.5083630898017495,0.582973649490202,0.4534090738604314,0.17569207072300827,0.48480018414424597,0.6110418050660914
88,0.07811830720182963,0.48836095557777065,0.7277146545513855,0.6458491261764265,0.538648571087351,0.6869675153728982,0.42274896727279093,0.17129769721928403,0.2908671985034939,0.7607489492953797
89,0.09344912335817403,0.4191998572385615,0.7122988277316812,0.6760890733078571,0.5632154642929951,0.721692020900353,0.39787035361079887,0.16662343453604694,0.02616765498254464,0.7765673861324576
90,0.10836758657404,0.360572724762179,0.7027015008551531,0.6922619077102167,0.5822038582161221,0.6921429444839768,0.38153160389433155,0.16178152500642168,0.19741963796423914,0.6789278707247796
91,0.12423641228826832,0.31222523065743285,0.6953276853345057,0.6966773922390478,0.5940944086300237,0.6349756028022044,0.37081268914048293,0.1569095768229877,0.2069695677440954,0.5767555271206067
92,0.13970675241965402,0.27258247039430256,0.6895437823507832,0.6961812576801433,0.6025372765796008,0.5765324309075566,0.36415843495437145,0.1520632481880408,0.17900926122172656,0.4916735124868361
93,0.15467272160781634,0.2391962016480749,0.6838951720089743,0.7006598941867085,0.6098655503441035,0.525767249756555,0.35999442886338345,0.14721423542630674,0.18897014836187132,0.45327871788015234
94,0.1673634400197337,0.21098561759445175,0.6791257398451634,0.7132738878079505,0.6178346429205234,0.4687944028818601,0.3573069034491262,0.1422969812039074,0.03693716812511592,0.4142159973684967
95,0.1760654163994467,0.18371423320909233,0.6777409654892497,0.7367505109797968,0.6267560311700053,0.4657358120284408,0.35717232530625903,0.13721719438143218,0.02996052055146877,0.39721321284789934
96,0.18135848854186146,0.15890948285469506,0.6789030893715507,0.7677728925398876,0.6345912714704162,0.46464825036787555,0.35980600902507043,0.1319173371119018,0.02239395845557456,0.40842740607615
97,0.1849519789349913,0.13715316595759325,0.681692349594121,0.8018421300523593,0.6402974460590385,0.49263749278657953,0.3641132950976679,0.1263631482163536,0.07836052582683511,0.441301499974507
98,0.1850939784532137,0.1219127956147865,0.6878307543242421,0.8374768594374754,0.6414339015849083,0.5475019450025957,0.3703914375685813,0.12054855767018441,0.23693233152060236,0.5148395485358328
99,0.17914251945538487,0.12141016288779705,0.6998813904892207,0.8719460899625475,0.6364320363644749,0.6819736498909901,0.37992210241459257,0.11451310190583495,0.19393744261042672,0.6504809501749068
100,0.16692819073699597,0.14883191561164616,0.7178920707204854,0.9025003155873906,0.6270140245573637,0.7728205179084573,0.39506596002711825,0.10835720893987866,0.009109200095350208,0.7329111402923468
