Frame,Center of Mass distance,Symmetry,Grounding,Arm fold,Leg fold,Kinetic Energy,Potential energy,Bone length coherence,Torque,Center velocity
1,0.12305378667307086,0.2451789511832649,0.30677819110326066,0.5403663143815045,0.38186332120593597,0.2131824403823221,0.6974122595781044,0.9999978993037154,0.06367574789014167,0.14231848630887378
2,0.11997598028051148,0.2458248711357761,0.2983177441365158,0.5478927087089718,0.3956313413738074,0.2131824403823221,0.6974122595781044,0.9666717074662405,0.06367574789014167,0.14231848630887378
3,0.11684838332853925,0.2460782967301784,0.28868583815463644,0.5599585870726588,0.40839280257560195,0.2652071943447274,0.6855287769200178,0.9285496786909812,0.06755859040970061,0.1750332766940874
4,0.11326271193663763,0.24529486845698345,0.2775783749318792,0.578712655763647,0.4211078768015223,0.32192017389899763,0.6716748377208898,0.8848922695072247,0.07777216605774744,0.20493894050770634
5,0.10860738951839749,0.24317414811947746,0.2625582070142248,0.6031851033418639,0.43608070583872316,0.3872342026518276,0.654044574990693,0.8369691866170759,0.06079186267840893,0.2472942419057163
6,0.10245750818328324,0.2376147776537087,0.24288100773869317,0.6293463159551668,0.45662335507537727,0.4384770026079485,0.6308435276268147,0.7855543502264344,0.05062312328327066,0.2787251293142206
7,0.0966130218343727,0.22603060039901973,0.21688330134878742,0.6542584849774792,0.4796072792186443,0.4754130749788404,0.6007681529316911,0.7317291646636462,0.10130534690307187,0.3154868927095917
8,0.09270962270192319,0.2092220418578469,0.18151277532886184,0.6772567897850871,0.5070022620182486,0.5514466110565828,0.5612053083799643,0.676581861083135,0.07478989240084034,0.3848756090560664
9,0.09317111545623502,0.19007307843151486,0.13649329223542175,0.6937927356007849,0.5450180576456967,0.622166933032388,0.5115089028885296,0.6216272228016902,0.08694586844252895,0.4533677706595371
10,0.10027928159468882,0.172729205394268,0.08431366527711455,0.7074973748103819,0.5950808013050403,0.7029290002392395,0.4550878867027869,0.5678730924782001,0.024367700476016906,0.5396067112446036
11,0.11490092365180891,0.15900683206818333,0.029786792063056317,0.7246027848619598,0.6560594796770689,0.7334743855537615,0.39648256907430235,0.5157768069125871,0.0042585440188210874,0.5535315531881724
12,0.13972609593205107,0.14981960774335554,0.9261884035768962,0.7467052807639804,0.7192341551837108,0.738963924665386,0.33960343282078415,0.4659818283506073,0.029427290620224006,0.5562888523128722
13,0.17606586272761465,0.14422166121724617,0.9784591070945745,0.76378730857236,0.7765706175305603,0.7268611088271181,0.2867365411867422,0.4188565568960653,0.010336031706745715,0.5624081633821956
14,0.2225681647968415,0.14036198484786647,0.9728245039548198,0.7788178533126575,0.8267523210401939,0.7211071596528904,0.23923238367048008,0.3742591535351809,0.01961721984315063,0.5819462047316895
15,0.2757660957013345,0.13741985949514557,0.9291867441791625,0.7968072810681889,0.8686752768189622,0.7062158438323186,0.19758693402314717,0.3316653128928777,0.007224580063877141,0.560054745553458
16,0.3351264147700676,0.13443878896998054,0.8901242251117646,0.8156321999188525,0.897340749749704,0.7012815979396949,0.16147644111704257,0.29088336457354746,0.04570133808098505,0.5632012721196936
17,0.3984734490874994,0.1310516924010832,0.856423157492053,0.8357799842314916,0.9098118376096631,0.6838721920149073,0.13149758150688845,0.2518007469311885,0.008674282406400814,0.5727259608413435
18,0.4687039153632607,0.12816644414141928,0.8255830190638087,0.8544756609278786,0.9127035741658158,0.7002687575272598,0.10710454829710798,0.2145378416150836,0.12373654460379051,0.6235370127001063
19,0.5515159352342895,0.12663641885750027,0.796117752322275,0.8707930493014319,0.9097580025516331,0.7659008462284297,0.08570224115882107,0.1793514082310978,0.11146155332923254,0.7021671061660932
20,0.6470391168938112,0.12651035765730576,0.7698715266895693,0.8806380665965569,0.9029600048697138,0.8313713271296034,0.06684657223877685,0.14665765214389914,0.008857800909585295,0.8053792351759007
21,0.744920686120412,0.12580602842232783,0.7500621354978033,0.8774038544835622,0.8986637677766705,0.8670365620701067,0.052288253981079856,0.11715237919923656,0.028524181990474528,0.8932417724388646
22,0.827380350720641,0.12376793945348416,0.7379874447849575,0.8644739318324232,0.9009224056206703,0.933541011602814,0.04314228105017427,0.09117125602338087,0.1600844249338268,0.9423046356139577
23,0.8457445718776481,0.12223720289615338,0.7358729980135633,0.8525698333893653,0.9031620878819544,0.8931868673455197,0.03975700507672682,0.06878072970686057,0.12551269616029875,0.8733912078275657
24,0.7958260139681237,0.11838273504046884,0.742996020521143,0.8450481737959882,0.8884244962954971,0.8415893089578318,0.042401633851870325,0.049893902240148974,0.08192497915502706,0.7646631079681115
25,0.7170675797481502,0.11336830092197028,0.7579748669759587,0.8386836688382845,0.8577427434412275,0.8075404742031684,0.05122518432376196,0.03442739317656562,0.1237920867342859,0.7127569379252091
26,0.6382630576773124,0.10845484825479848,0.7780798475589458,0.8348838890125729,0.8217469955729549,0.7376165119538123,0.06533205504966343,0.022219244371011398,0.034661067944056274,0.6363529112350449
27,0.5619019523935209,0.10359694525317951,0.8027866732323058,0.8357218943837603,0.7861679552368344,0.7038127598953732,0.08409040605819859,0.012942697473827642,0.08276220758845704,0.6081784547261809
28,0.493716831727125,0.09953482010170783,0.8295872236708912,0.8417121149391563,0.753442046425875,0.6434151210239132,0.10628551505194106,0.006288950166398442,0.005258668256136782,0.5597733879053409
29,0.43000963538583975,0.09652030846812529,0.8589314337892902,0.8508354060916967,0.723373109978684,0.6274445141888764,0.13072676615131087,0.002002146491402423,0.023247365048053668,0.5789432559853529
30,0.36921770853167674,0.09463831047948337,0.891518303647204,0.8597300582306366,0.6955651828368975,0.6377848988928454,0.1582047720282268,0.0,0.09613939164308398,0.6096328456460309
31,0.30782133682784857,0.09450461347508088,0.9308164965417497,0.8635317510213769,0.6633019490769997,0.6953901470091404,0.19194036588725047,0.00042456236128002604,0.031847384766408283,0.6343046737448049
32,0.25162629141810244,0.1004360983541197,0.9769710665161094,0.8594014948915799,0.6177787678107098,0.7166744385119833,0.23494850111303742,0.0034811151541036867,0.11945197829207989,0.6011396476381649
33,0.20380318875859282,0.11505004719368919,0.9710798447257674,0.8449630190328222,0.5651597724318833,0.7554282696348676,0.28816421312649254,0.009627683303578095,0.012986900513722246,0.5737641027517232
34,0.1736926176793244,0.13501407811737948,0.9182699234131584,0.8134245408111394,0.5010987371427634,0.715562908892045,0.3507494406042772,0.01910038284491919,0.08243444317779024,0.4154961673072648
35,0.15870999192343285,0.15725434778774386,0.031763092126658274,0.7809340120846512,0.4373820493184565,0.6488435585786969,0.416613885223084,0.03176538329800992,0.07559642260212666,0.34242928464837635
36,0.15531844725490368,0.18113281419521263,0.07190867024228301,0.7437842040277322,0.38518577372256063,0.5808579613660678,0.4791358436100522,0.04752987449452212,0.029145431760029192,0.27218110353061065
37,0.158589222347684,0.20489268510069217,0.10727671184964108,0.7038869007963502,0.3403998187352681,0.5551518074689774,0.5374544118322815,0.06638988648653864,0.07954884404020564,0.2694862606741176
38,0.16501765312555924,0.22631684303319696,0.13873603719124608,0.6675324238475484,0.30130839625561967,0.5093256009930264,0.5915960957282047,0.08819584679308874,0.06960303326365151,0.2573840101836621
39,0.17266292227978328,0.24539720773959597,0.16779478496337413,0.6367284241275308,0.2672027848175397,0.4704846680672325,0.6414763820815322,0.11276349208957596,0.059099567074492196,0.2550725479407675
40,0.18078195763127083,0.26227524011590025,0.19453635567042316,0.6098878070538497,0.23674126246230712,0.4367290634422836,0.6882820978662361,0.14003314699562486,0.04304878301097761,0.24822510355841554
41,0.18944385242937106,0.27611769743274694,0.21904864515522585,0.5845682626500224,0.20960485112605007,0.4127836394052503,0.7319114543855904,0.16987510102995368,0.031763046982245524,0.24100972081405214
42,0.20111976336246704,0.28886609194552026,0.24294901156969034,0.5607295751070078,0.17897810093336342,0.43861832342986196,0.7755115491064711,0.20230791383398278,0.028498115817002973,0.258699040822311
43,0.21356995027234818,0.30277330549340004,0.2678682712288714,0.5432649271515456,0.14741371539152406,0.42589420714088716,0.820577862412689,0.23728054327527004,0.08193487525603194,0.27555877749702906
44,0.22382334256450737,0.3132447051239334,0.2896926547032847,0.5286977939360867,0.12425789181432549,0.3761112284007163,0.8613114321611887,0.27485752908432914,0.0903392799156367,0.24217477295469067
45,0.2331956178265821,0.3176061153684066,0.2995214977298126,0.5040571993055295,0.10274143135703044,0.3193507532631154,0.8919773417270942,0.314831988508845,0.12040982212859533,0.20852603074719045
46,0.23659520452800495,0.319855935601305,0.3029485777537982,0.4714745938722004,0.09607827317243252,0.2554878926032501,0.9114482421350231,0.356826305125096,0.11970685746553411,0.18885598672038775
47,0.23692460178750094,0.3206280855417565,0.302135829477439,0.4374247548668465,0.09765182948525464,0.19751927959402904,0.921589146583003,0.4003509560368649,0.09913297609436236,0.1751654266508357
48,0.2354899210777392,0.32297080901266023,0.30180937432380356,0.40733291974527347,0.10575500349009914,0.1420325197732909,0.9265416360900147,0.44474166842067536,0.05138105848309284,0.14383681178768395
49,0.23399832110763666,0.32594144525647506,0.30246930337509936,0.38062380910026467,0.11450980210538964,0.09654241494274228,0.9307744521949195,0.48921344998730343,0.05120285874612387,0.09686025906924929
50,0.2315000824283304,0.3304687478588637,0.30317976181294287,0.3560703713410298,0.1255802290823443,0.06409308784602641,0.9345668592962478,0.5328726426168044,0.004576171656245253,0.07011647692384076
51,0.22874039969586585,0.3354817980648177,0.30344088137239716,0.33244033143455515,0.13621063784203088,0.06609514565869026,0.9370776580180408,0.575131641326462,0.05709386509655832,0.05818297957943921
52,0.22639155494014793,0.3420281201771394,0.3033709557424408,0.311655209856429,0.1447951147380761,0.09972224165965018,0.9389030723742648,0.61535036344227,0.09141718472374064,0.0567259908129639
53,0.2242634165382849,0.3515767333014492,0.3047343467692823,0.2949314292280501,0.1519112574896276,0.14887446068926874,0.94108284712243,0.6529079282344064,0.1134541920993166,0.04424408122544741
54,0.22155318720569867,0.36401615350852884,0.3071533123340181,0.2829124844590233,0.16040637942698022,0.21191419362511588,0.9438323366677012,0.6875232057684318,0.11131089971091333,0.05711804653802573
55,0.21771260668256115,0.3772158777955855,0.30870489482763586,0.27354696798270073,0.16931787884398247,0.2684197957859603,0.9449193944719843,0.7187285481169937,0.11741656583917996,0.045306070736280124
56,0.21199775414831368,0.3901056167909994,0.30880690614456313,0.2680439314007568,0.17860073082211145,0.32376652354123886,0.9417062096093414,0.7463578261086984,0.19925356503164998,0.0434976205888074
57,0.2021552686034891,0.4033174741696077,0.3051386097138226,0.2638545446294699,0.1909923922998847,0.41437391780990135,0.9316674239630541,0.7700484294652408,0.12014978854560196,0.08398970065361376
58,0.1868227755270604,0.41325829148920123,0.2946992473657616,0.25591832505168227,0.21127391959655875,0.46816484056177177,0.9116739343124288,0.7898626715415754,0.0696932900895851,0.15378925375956107
59,0.1694734454896156,0.4232354572345117,0.28167518796706836,0.24578098011464053,0.23279701488857346,0.49982429324115984,0.8843780964785314,0.8061516443590709,0.14078758501657648,0.25203925996863
60,0.15146901739102386,0.4334791770261264,0.2710403313161862,0.23883973163116518,0.2552683611357416,0.45744680065116666,0.8573307641778286,0.8193211157352497,0.055777952362271864,0.23953112706054036
61,0.13319109852895794,0.44576856102253554,0.26184435618343577,0.24044201454303998,0.27859137722839256,0.44983512194610786,0.8341945669432351,0.8298357926793409,0.13419360500255575,0.24796419413789775
62,0.11657274500740737,0.45625043819867867,0.25171834176306535,0.24271779513219005,0.300554374056096,0.41233636253241435,0.8143198497728869,0.8381691013279791,0.09071508819664188,0.24583955759207343
63,0.10152054463488334,0.4640866918118454,0.2414788297954665,0.2432790192509505,0.3216448029673351,0.3877728995482724,0.796028790881986,0.8445150849610996,0.06625478028389371,0.24133930185479952
64,0.08661845333948824,0.47191130799502257,0.23076594253640884,0.25003247892758207,0.34118000149063865,0.4053714870585205,0.7779718702728471,0.8489488114150562,0.05991469896201701,0.2239002812379781
65,0.07276447590901267,0.4786290872949446,0.22108884364161344,0.2655252755735943,0.3587108261676863,0.388693690020246,0.7597824101976612,0.8515173881970441,0.03170405047567225,0.17659905153539618
66,0.060062690451324806,0.48358189417084413,0.21146199004134558,0.28528270692152624,0.374288218521659,0.397111185388895,0.7412674425293226,0.8523054463535705,0.08995348201048284,0.17958155394784733
67,0.04791987592010301,0.4877995386443876,0.20148753035802763,0.30701294655735534,0.38963599856867526,0.42123803765796475,0.7222624652366465,0.851407869994462,0.09608105975744186,0.20065342249512416
68,0.03599561380480995,0.4917991071620188,0.1911413891855675,0.3295698011318108,0.40572348032118155,0.44643227791430407,0.7027266828017728,0.8489702489946603,0.11903362868994459,0.20889763607329334
69,0.024142723285051806,0.4954259103197724,0.18019170287214514,0.35319283968848897,0.42377903129730393,0.4777422427022435,0.6823965547714298,0.8451195143463848,0.07943903511004702,0.2259015088582689
70,0.015448514669023502,0.495990973683511,0.7367127406022596,0.3726623970876435,0.44197414750204933,0.4974986432510175,0.659390678117039,0.8400056196779002,0.10604911390148059,0.28305257786668214
71,0.0097011836145219,0.4988356626005993,0.752847362521573,0.38601570076705544,0.4620840318326721,0.48083969103460283,0.6353735351673675,0.8337975913649287,0.13890387099177443,0.3500925376830795
72,0.005962229137233268,0.5032480684359779,0.7714564370764416,0.3914471886316084,0.4848804584292726,0.5166237331592407,0.612229056808955,0.8266650898659942,0.06250265097334515,0.41300434983182166
73,0.0018273461907506348,0.5095964775473669,0.7867579675025874,0.39860210236672766,0.5144900108945041,0.5169449074543467,0.590743075138371,0.8187175147575909,0.16038316862619756,0.42196922139080956
74,0.0,0.5134787084029653,0.8004524395051598,0.41139223520966406,0.5406333217775952,0.48257216871881053,0.57249088683525,0.8100275955884586,0.09700511490550508,0.35268816812611076
75,0.0024006625106424524,0.5144638914211841,0.8162712736476694,0.42762961896627893,0.563834446635833,0.46637400830579656,0.5546674861556892,0.800701978582129,0.022921862517855333,0.35005011028017313
76,0.008970958428780684,0.5120184826164084,0.8343039310642754,0.4486443214113571,0.5838524452627872,0.4687767845816018,0.5347941576741911,0.7908135926268348,0.0366922861871538,0.3397876217893
77,0.017519372322689377,0.5060732318106697,0.8512220007888599,0.4776642188704274,0.6003900385142682,0.4590480348647078,0.5134945763788118,0.7803295987848538,0.07399764007458677,0.2745981110581488
78,0.027724550363130707,0.49657889134323496,0.8668684969133987,0.5156417615795894,0.613979070867281,0.47503999779379213,0.4923965669028752,0.7692592395071647,0.02474689724230841,0.2405892572556293
79,0.039328403183354704,0.48436729071818363,0.8810308740434358,0.5624062777172399,0.6257294895964614,0.478833276422136,0.47187657461903626,0.7576430321086205,0.3488694404349827,0.2382983103921873
80,0.05425786840811379,0.46740530035701117,0.8964536393465327,0.6167071447942505,0.6357960620542802,0.5545013814171587,0.4507723493115838,0.745470304457039,0.25964705704881375,0.2734875023072045
81,0.07337551212325429,0.446745676264141,0.9139418316214845,0.6788708149655802,0.6495911029353579,0.6175615118521258,0.426789519227891,0.7327516965064695,0.38712964426159413,0.3058445249863534
82,0.09995835914394524,0.42136939680142993,0.9351253369212411,0.7416923684830304,0.6604344556037718,0.7000889841301793,0.39914617578770356,0.7195456955981568,0.26094475743058415,0.3910985804874719
83,0.1342434280618573,0.3891011414123429,0.9609426393079794,0.795854935011507,0.6700375471976157,0.7589913913761398,0.36825983468001444,0.7059748638044991,0.21627357228527158,0.5099659160657533
84,0.17272139268837236,0.35017329347506937,0.9887757472604028,0.8334428453112427,0.6826825878779189,0.8170732442026218,0.33681098538434895,0.692250652335366,0.02422555241253766,0.6687960785238339
85,0.20608506856875775,0.30889824688085066,0.9898219189094766,0.8525743252377769,0.698931918506299,0.8344609619222437,0.3114795310648173,0.6785863620770943,0.3460580966548299,0.7552568375749881
86,0.22917242605765661,0.2695357760993233,0.9774853956219105,0.8686491745311486,0.7126907759445297,0.7466724674371722,0.2953182443732096,0.6651192991003837,0.22101370313915567,0.6795598127506851
87,0.2417871456895032,0.23420953317055893,0.9736610491156825,0.884993932947603,0.7213542980458398,0.6841942149534601,0.2882101261887122,0.6519748557717747,0.21164384453276322,0.6463007475471685
88,0.24380910741362002,0.20573532780626344,0.9780926395295652,0.8972449910395041,0.7226861039369742,0.6180547032401918,0.2898703220631865,0.6392250100871044,0.008878269955840281,0.6054078469717527
89,0.24041236873579214,0.1791797418727839,0.9879026823488835,0.9092776756925972,0.7160410787419658,0.6140017777029227,0.2977544514277669,0.6268995706672065,0.08981275616078238,0.5942359425340171
90,0.2307246059041163,0.15628673065646648,0.9963172428839575,0.9252149884128518,0.7007734157134146,0.5784407740466397,0.3103676390819923,0.6150007266771018,0.015279146710810269,0.5430421326085619
91,0.21731909607048944,0.1364638504359227,0.9767141359213432,0.9412188914831752,0.6806753350082685,0.5700882240891985,0.32647308717043766,0.6035476911159618,0.03837897666599671,0.5341205478899507
92,0.2018682286034642,0.12124965601183152,0.954715297664888,0.9556892750862326,0.6591393968824404,0.5484401416978663,0.34449281511073476,0.5925909192282434,0.025696596630293143,0.5232088113998494
93,0.1837279576118287,0.11053701113047976,0.9289028304129225,0.9656425264788688,0.6370713721423222,0.5619635367390665,0.36533103204691214,0.5822161948365496,0.05698612116186304,0.5512885503979047
94,0.16390146454731666,0.10455867090332732,0.8981716496300174,0.9705298607496663,0.6124840306778329,0.5952827855383969,0.3913326929040594,0.5725054531778518,0.0274207725050377,0.5831926991971981
95,0.14493615233602558,0.10492379537393855,0.8625282281578847,0.9736864186133968,0.5832993335494062,0.6135798680044475,0.4233524302860204,0.5635710418945044,0.08033017015803186,0.5774246143930918
96,0.1270444837787644,0.11184179827636007,0.820126836853513,0.973240711275396,0.5489916999253658,0.6637885523080252,0.46169898103357293,0.5555322814466381,0.015687350422356583,0.6318868279415888
97,0.11346623389510185,0.12356812879704125,0.7733969749681072,0.969085007061163,0.5095414849563353,0.675619285709097,0.5058963384724944,0.5485104346158282,0.05572435144542344,0.6305569281393182
98,0.1076167911546557,0.13834199937637334,0.17383675377816268,0.9564019519679954,0.4648107956099506,0.6332128145012842,0.5534807964036118,0.5425961436357402,0.15400307524945267,0.5570271319421172
99,0.10868707523935175,0.1513434748113552,0.20805452350760759,0.9362339680962981,0.4218896689790068,0.5016551468576476,0.5971394037399846,0.5377107955963698,0.1606957481554487,0.4310378951473677
100,0.11317920255752115,0.16171999215033508,0.2308144721379526,0.9074223602249433,0.38483586508022893,0.38021505238796105,0.6310414277208382,0.5337621071013803,0.1304264650691188,0.2674106163421045
