Frame,Center of Mass distance,Symmetry,Grounding,Arm fold,Leg fold,Kinetic Energy,Potential energy,Bone length coherence,Torque,Center velocity
1,0.03401749331983676,0.8140790195872126,0.16480902806098519,0.14211715885871706,0.3076510926981874,0.05389116371125812,0.8966684971168049,0.9999965278809755,0.011271511715537677,0.01288277289459483
2,0.02718176389623644,0.8151844599082934,0.15965590829205176,0.14793847099372223,0.3299980465695953,0.05389116371125812,0.8966684971168049,0.9854574129120327,0.011271511715537677,0.01288277289459483
3,0.023178976109138445,0.8149611468871863,0.15341157263940833,0.15608034382391053,0.3464842663607778,0.04842895280442894,0.88582565919945,0.9690019350471554,0.03617505489055272,0.017891592660293172
4,0.02093790158915533,0.8123095795915393,0.7510363726908652,0.1649541327186059,0.36021822909262907,0.058437463899642474,0.8719966563026144,0.9486704267426025,0.014470541333922138,0.028107349735114195
5,0.019191416396023172,0.808925050879338,0.759531851035454,0.17432163789967578,0.37128516703698444,0.06570529513887072,0.8561973109844234,0.9240489477654291,0.036926810316483434,0.03230699688047083
6,0.017601472118795907,0.8035400086375509,0.7692583736973795,0.19068757667944797,0.382313324331482,0.08128858096888292,0.8392445412988192,0.8952655012896215,0.04143198690238446,0.04269108603860479
7,0.016709812013285703,0.795391248633318,0.7802849216082163,0.2120790548742892,0.3938342216515956,0.09789015896778423,0.8194354867313164,0.862403972285916,0.0747335832966747,0.04563012602968382
8,0.017418166727195154,0.7814638636380027,0.7950853815367821,0.2368380208424876,0.40856593098036625,0.12274134306782927,0.7949345083667283,0.8255665001925545,0.061471110860613125,0.05761497539740245
9,0.020509482821456544,0.7616506661067982,0.8132571260136722,0.2643697572548344,0.42823009576230897,0.14277348923963817,0.7644017039236879,0.7853248449740926,0.046020267472644594,0.06451041021730175
10,0.027287463045831125,0.7349075350297588,0.834792043087947,0.29341726580412386,0.4515304704696717,0.15826126056953707,0.7283907431642844,0.7420353908948999,0.06872145290980258,0.07591453599630098
11,0.04025858106091204,0.7008040802066764,0.8615763902719722,0.3230203871884029,0.47834864852516046,0.17808679183223006,0.685852828319452,0.6962577293240433,0.0683806858051087,0.08742398275859453
12,0.0610717750785649,0.6620888707523817,0.894958230590698,0.35008562402734045,0.5144571919903679,0.1971736925923632,0.6362697297695528,0.64943435385392,0.00967391853033615,0.11422776096540624
13,0.08653143959660456,0.6241925517810916,0.930264845514454,0.371064239585224,0.5593363995628721,0.20236623991470698,0.58446858071842,0.6034176131771832,0.05197121297740354,0.14313769681583824
14,0.11313408563107266,0.5896975318541423,0.9626803658192833,0.38831375230163623,0.6121793786183206,0.19246030288990829,0.5367259648305412,0.5590941723047899,0.023608541908071805,0.13399560441264136
15,0.14341223545396375,0.5583618442179106,0.9927833813951794,0.4088273540599437,0.6704405305663927,0.19211871363458607,0.49368918740010753,0.5166812018778997,0.04218022031559122,0.11499045381004785
16,0.17850210574388867,0.5308592205094181,0.9800575969421812,0.4282029735080655,0.7217287292962796,0.1770655644753781,0.45452552263293755,0.4766898751869717,0.05338202377401461,0.11314170982120444
17,0.21507225120395387,0.5072430411294421,0.9570179657961665,0.44761471962139154,0.7656612424319331,0.15708151089352765,0.4201370130295046,0.43893618058943373,0.008694867616394816,0.09714112729009051
18,0.25647039007447514,0.4845339318260885,0.9353509800560955,0.4662008806606382,0.7993600637511633,0.1579471587674334,0.3895360634238142,0.4030646750619941,0.03557407412119692,0.1037971044488892
19,0.296504749916929,0.464996208979055,0.916984490059482,0.4855536718957587,0.824607171090324,0.14100535731384373,0.36230367586913004,0.36866310837514965,0.007842910070155607,0.0926496369534606
20,0.33599453976791543,0.4467105804374951,0.9002777920968453,0.5055426779199916,0.8450819217523456,0.13638947006868124,0.3390038636024991,0.33538738167215165,0.0052623552936594325,0.09463896391259603
21,0.37681844218509564,0.4277334866169387,0.8840627182752048,0.5263201360511077,0.8638135648882526,0.13864800819321485,0.3179750186518716,0.30298873558335504,0.005070771241451053,0.0965763819689091
22,0.4195146609266362,0.40842070034979683,0.8682795148604358,0.5459594669209814,0.8796606091997238,0.1414959869848249,0.29740863197970563,0.2713635411414715,0.03613539248462568,0.10661124388249224
23,0.4669589911878307,0.38579920586521144,0.8517923678478185,0.5662343544982436,0.8986135905843794,0.16029379457260515,0.2765463087227142,0.24040348150228866,0.011066565102283434,0.1206130485067735
24,0.5154608881059765,0.36198364279412826,0.8362144637065997,0.585855872117453,0.9162408855682274,0.16641233001026087,0.2559225521317602,0.21014160864361756,0.01605142503643101,0.1308453550842776
25,0.5617260628432847,0.33990704937174404,0.8223605663195273,0.6003763829269557,0.93350437491232,0.16074057251556403,0.23790885036483242,0.18101833013400004,0.014381303847456192,0.15718797827443623
26,0.6067786885343592,0.3221438766839161,0.809871026295905,0.5965659475571997,0.9433746534313197,0.1702696520612605,0.22404461580769497,0.1540565061133042,0.08459398253175406,0.2062824254207079
27,0.6599295278059752,0.303632558706911,0.7954968840205288,0.5673257265393984,0.9495007450610243,0.22371638181422643,0.21188069130729228,0.1303341201670595,0.029979528350572195,0.27548492021787896
28,0.7111020014364368,0.2795177169766071,0.7820198225598609,0.5235701851742663,0.9675468603527724,0.24713694910725714,0.19992805901471902,0.11009852550344516,0.07370728880133444,0.2848272255444244
29,0.744586743888794,0.2603026864030191,0.7724551397758613,0.47698742343824724,0.9999999674060003,0.20627129981242068,0.18924009898441027,0.09305750614127394,0.02531293851862527,0.21783315660706368
30,0.7641385206150897,0.2566959426792421,0.7670679121550785,0.437719360696477,0.9516334300006689,0.19385853823256338,0.1815873599878412,0.07892358782084562,0.0222738785175265,0.18468995928171217
31,0.7764545863197083,0.2582900226950353,0.7649763671085997,0.40083512415746997,0.8935660573717507,0.17826894637374194,0.17750971411306393,0.0674036218468482,0.03556827864423366,0.1628823427678922
32,0.7795163792821935,0.2615082420039397,0.7658800220080058,0.3637740883835816,0.839131715571819,0.15293432156304643,0.1761844194683528,0.05826800019381227,0.02031846092380105,0.13883492866816544
33,0.7823775459135168,0.26171751709752783,0.7674340417149761,0.3300071654117493,0.7945306848711167,0.1307806508064485,0.17647763623686974,0.0512072832925236,0.012378145288282785,0.12121077947523269
34,0.7888627241991437,0.25679924473033033,0.7684500195472119,0.3048587161734042,0.760751618316465,0.10908382511499386,0.17655685702244595,0.04576066232451801,0.01578660806482123,0.10793659211086977
35,0.7991217136469215,0.2489881105135486,0.7682285668084051,0.28873141377548384,0.7399475899149107,0.08736213731390613,0.1756487970981706,0.04149509419033644,0.008476059732349618,0.08760461635386976
36,0.8100354133630223,0.23540284996840527,0.7677045653002742,0.28200530365213017,0.7304424323801795,0.10191224073112085,0.17447067072274497,0.03804128769982332,0.011427603342421372,0.1067366398775382
37,0.8170962982119278,0.22040477893015048,0.7679605789414902,0.2829899661978376,0.7244718128395928,0.11710570254280693,0.17446200565973025,0.035119697435749796,0.0045742788482533315,0.13083789006045748
38,0.8181145996916256,0.20658893607872186,0.7690641799311928,0.28505169794389823,0.7237107906132586,0.1251336317983279,0.17552109959910062,0.03272070570444886,0.010041035484894621,0.14446575602525025
39,0.8261776762440882,0.19409433506631307,0.7679576675611243,0.27804938788800354,0.7256112145392365,0.11178723799993344,0.17507458176928434,0.031140430656027753,0.0005352163895704467,0.12690135395122026
40,0.8328381903361423,0.18492529968987498,0.7666924849611091,0.2541630378276118,0.7254369911705237,0.11147744191671063,0.17264145585712815,0.03095798580101147,0.015136254653851634,0.12738589356963193
41,0.8376395110707477,0.16970569913085898,0.7656604006213645,0.21035909562473548,0.7242594859245728,0.14563895218112527,0.17028019608310618,0.03267382349730298,0.010798149987896147,0.1507096830430567
42,0.8357998226705166,0.1494903551291081,0.7658573414157998,0.16446592465785465,0.7255612276915976,0.1340367066863372,0.16871271035238283,0.03619751284944332,0.002802200383629514,0.11660417913419066
43,0.8313250182706381,0.1269615246346015,0.7667449367654448,0.12030172989494259,0.7259212018660762,0.1296296872568368,0.1680397368028491,0.04141587546522282,0.0029652350655435485,0.10167432187887476
44,0.827552665209744,0.10304533439428144,0.7677394549069183,0.07716387399428691,0.7256805915290593,0.12411341746756444,0.16808563003232888,0.048140367162529236,0.012102309477679499,0.08647165771543422
45,0.8233784333165152,0.08221729664164287,0.7689383801247333,0.07740002576300277,0.72595409512474,0.10740804858456754,0.16822372800613603,0.05607620832191065,0.020197683681586,0.07902138184468713
46,0.8219827069764625,0.0670940800690104,0.769199699991455,0.08218795879830414,0.7318486429958665,0.07808060506225295,0.16761619113566564,0.06482745468336286,0.020400787177402964,0.06298989901726457
47,0.8231002976197775,0.05735960911189718,0.7686698992014661,0.0857315944654321,0.7417329945020991,0.04738418647087185,0.16629401292851917,0.07396782521585535,0.011273077338874515,0.04193201067571168
48,0.8177121537430775,0.053700046145017125,0.7699327104352155,0.08736173605000343,0.7498621242772567,0.038144684787710166,0.16665095016259932,0.08301977848744026,0.0018883637756477766,0.03667537029158825
49,0.8062123794887663,0.055268143679260896,0.7732572250666923,0.08703590773948784,0.7479327178187309,0.04700665548788904,0.17029003874100712,0.09162463150833397,0.002182848356321087,0.03339605562187676
50,0.7937083720480814,0.05731989021135528,0.7770572808105305,0.08392430180411044,0.7419529519016627,0.0526600769662974,0.17581852753896673,0.09972318893210937,0.010937786390865713,0.04166382615637292
51,0.7825962864669421,0.058665575501910996,0.7809719369379688,0.07725282665856636,0.7296823977858999,0.033132770399333274,0.18186356322700223,0.1075208958474905,0.0021291767165344143,0.03727324501553982
52,0.774170281344018,0.05550558326502883,0.7843800128817243,0.06833062818107498,0.7144794085079795,0.03004279278755378,0.18784967893967525,0.1150854848041122,0.006026565379340712,0.02800216577289946
53,0.7682102908531802,0.04912162667412648,0.7870707153117498,0.05921321271294286,0.7002051675897631,0.02028279550265368,0.19304331125944693,0.12244318114665606,0.00862357035939651,0.01041890297596355
54,0.7695441649795589,0.04186264693985779,0.7880959672991835,0.050517645173572386,0.6851466776141895,0.031061830290032226,0.19673362179232537,0.12958051173260807,0.004152156565232766,0.03803314099936097
55,0.7752516215609967,0.03640112975915231,0.7879655421545619,0.04113198560241442,0.6716967876772604,0.039864604378292985,0.1988031680558822,0.13644024848348785,0.006423471468025767,0.05060492369232119
56,0.7834521239555868,0.036320652253671884,0.7872127155412136,0.030420664401497658,0.6605492483464764,0.05430065064817004,0.19979779711043455,0.1429322398871081,0.009657323538855027,0.06717608005337312
57,0.7939687130945273,0.047029193694683925,0.7858236349235262,0.019477766643236673,0.6521420950594107,0.07500446422533,0.20018024336864942,0.14887941391577134,0.01564935712311551,0.08693683787798895
58,0.8011887304084838,0.07406695325428876,0.785456566208672,0.03247243261187829,0.6442351065501744,0.10276217626178195,0.2010419323426009,0.15397201336468114,0.02377416632131603,0.10868003250224886
59,0.8066187753210057,0.11772964829316541,0.7854714518147369,0.06624812854089669,0.6377813674647016,0.14126726319068136,0.2030007667092238,0.15793417852578456,0.02514198142214445,0.13417456184821683
60,0.8101875174151959,0.17519684777807723,0.7858436389241055,0.11361914059894689,0.6317170691487494,0.1810165121423461,0.2058286527378672,0.16050058199393413,0.014107431175622222,0.15785355328756293
61,0.8118239462173525,0.23381917015344192,0.7863287828958999,0.1695093497355526,0.6266016168856258,0.2033988475371883,0.20927227008221086,0.1615899449560302,0.019219803919525488,0.1648090710021267
62,0.8166304993588821,0.2857566026957705,0.7846754710311248,0.23113787881949563,0.6291501402734063,0.2321870985064511,0.2107997313998144,0.16116306245545953,0.032697070602849224,0.17239339741474402
63,0.8246034264635567,0.32248412627902534,0.7815696386313323,0.29961565243326077,0.6308106427178368,0.2727765365156876,0.20910272903214136,0.15913927926698246,0.048708375607808836,0.19277882682005995
64,0.8218284643527247,0.34126800358809983,0.7812332802835644,0.38245602958747454,0.6231648331080221,0.3266414279168629,0.20738495520369699,0.15534506925509234,0.06568583838018775,0.21178628939986266
65,0.8115433262769473,0.3493091746105745,0.7826831477058289,0.4894262736404712,0.6127220130708708,0.3927869316372412,0.20611364028038748,0.14958422069496588,0.08104410645322772,0.2035135053104755
66,0.7928363860220387,0.3733279206608772,0.7863131224869957,0.6229447741708541,0.5979722445753749,0.4727710830740533,0.20234085955648912,0.1417510765182933,0.08775842120110325,0.196171753303744
67,0.7650809896481375,0.41431100363111945,0.7937138983350974,0.7526780385588986,0.5709273742290693,0.4200612270793909,0.1994569325074656,0.13245212789619976,0.2588210861614536,0.15522567646579324
68,0.7506546064822219,0.486537237411679,0.7977779974950319,0.824879241936097,0.5565448587205117,0.2609719540775683,0.1994303874494711,0.12244244270017411,0.22653207927514796,0.16997666239671583
69,0.7578122741121976,0.5275600138861322,0.7950015736963273,0.8497425503286105,0.5641840206594355,0.14263904340926448,0.19796527589175975,0.11237625487064909,0.10034864864717148,0.14983581394392076
70,0.7696089865620271,0.5347150266408123,0.7914812687352375,0.8356364656887436,0.5692500862370049,0.11185716867704956,0.19562347754113538,0.10282600513991506,0.07656050062208403,0.1341023364327235
71,0.7902771733419653,0.5269482245155768,0.7856376118054635,0.7991235054825211,0.581878672069853,0.15856211631757933,0.1932105015328447,0.09413873838182388,0.0244587946383483,0.12103661380361155
72,0.8080223924424975,0.5270334182065036,0.7803564382581744,0.7546172844638954,0.5970173562872563,0.17640827364437278,0.1903181043519471,0.08645309203254105,0.021165584690321725,0.1014720372130712
73,0.8217617125285938,0.5380385007152317,0.7765888303180927,0.7131794921473805,0.6085634667874953,0.16098154396626949,0.1879719692857895,0.0797558758435882,0.07267394194845615,0.08188750492964267
74,0.8330466817893626,0.5485035032035874,0.7742429151515723,0.6827572383613755,0.6149548708823197,0.11826390255850518,0.18568767876576736,0.07390114562466098,0.06096843552632482,0.04925250925300992
75,0.8377509469139423,0.5571096935868574,0.7735720298082023,0.6633044777161607,0.6180508681759087,0.08499212064038267,0.1848836503277665,0.06869319657243389,0.03688598146352625,0.05071903179184251
76,0.8402932454252169,0.5642594466538111,0.7730396228632083,0.6522117965919993,0.6227306009667192,0.06308125326334095,0.1854384602177807,0.06396853599247897,0.01096835492444812,0.04144148348461526
77,0.8442247328137481,0.5687453282368619,0.7713724819416947,0.6458080551932744,0.6325015762559292,0.06606370008203004,0.18529160279156073,0.0595899294045192,0.014236465091762244,0.05279195454921601
78,0.8438454223459222,0.571473475588616,0.7696951042311523,0.6431808321716167,0.6448525789525132,0.07429069999160524,0.1851375675115863,0.05542372459276084,0.0033557395915190815,0.06476353339952248
79,0.8313391841094764,0.5755730318596574,0.7695918206647813,0.644898105557964,0.6604582452053396,0.08001192524715267,0.18668551113430062,0.05133730257880883,0.008944203486074062,0.052141939563814674
80,0.8057825127535881,0.5811766069192948,0.7714149317457407,0.6479419369332653,0.6819599402914908,0.093258387315036,0.1910546164724426,0.047252859218553975,0.03196153390619897,0.036503777203221156
81,0.7789394155761176,0.583533588348145,0.7739063454939391,0.6521670097627191,0.705594112724685,0.1123785601106474,0.19771944147787968,0.043105658754526,0.004162022197241701,0.04767417038678724
82,0.7520915951349917,0.5848058244589737,0.7778619722563666,0.6573227253759845,0.7231948442098098,0.1101625578135871,0.2060494465760536,0.03884064748582229,0.018985470235511802,0.05223797544733155
83,0.7317004677735194,0.5854429495530316,0.7819848155588472,0.6621613800995049,0.7313282459097651,0.09863280925915295,0.21511506389669605,0.03445261807330691,0.015245073457568644,0.07212569498251717
84,0.7332317908224179,0.5803237428576513,0.7823118058359213,0.6645707192898908,0.7270813002573827,0.08352149695792506,0.22165308355994498,0.030018528530337634,0.0059046231572438945,0.09419175666266412
85,0.7413672513141635,0.5738505172267805,0.7818311932867933,0.6628639278480826,0.7159018919323966,0.08639347184814827,0.2257176803537488,0.025626645827890107,0.013658191184061396,0.11728295501030211
86,0.7456930624693411,0.5709520741491181,0.7824703351926243,0.6568622013765546,0.7027654956641957,0.0831240275222759,0.2294733481134986,0.02135406085247339,0.017579807026479342,0.11341245972808513
87,0.7496877633826197,0.5699011342223178,0.783390660092513,0.6520447065958851,0.6891185759954677,0.0908828525285055,0.2322130296901141,0.01726955088850725,0.019390430970013275,0.11206914944375378
88,0.7488861802830967,0.5717994302644391,0.7855916636492036,0.6491291640190555,0.6783480366657787,0.10285465041920612,0.2339330565221514,0.013456200770667675,0.06904300006314547,0.12322536029395013
89,0.7443592184057679,0.5726565140982814,0.7890207531851169,0.6482913875074935,0.6722473853126718,0.13611604900925317,0.23575368203782435,0.009977976975995449,0.07887907169157614,0.14425741213901158
90,0.7320902230753931,0.5716292357129045,0.7945710181063953,0.6499230646283292,0.6723260667136828,0.17583537717246137,0.23842366785580196,0.006899539981015863,0.09099326410749103,0.17593012597791488
91,0.7071914620025808,0.5687190141442044,0.8041338225804814,0.6544765307233456,0.6746998006972738,0.22107753354213128,0.2435550120351589,0.004276503651127722,0.09094780697230746,0.21395654245658344
92,0.6682730116481665,0.5626085070028694,0.8192960567378328,0.6628818166184774,0.674053599005554,0.26541915066685007,0.25302763356574826,0.0021798696947891174,0.10298322210132513,0.24648322479937898
93,0.6147106639867629,0.5519690709007847,0.8411321608067444,0.6772034657569812,0.6659134777643708,0.3134454140407108,0.26833803961972247,0.0006921171079984047,0.059373697646167053,0.2985800672024921
94,0.556032728665147,0.5350854445710587,0.8665900220509509,0.6947355046637798,0.6489135753172873,0.3397684528698528,0.2895998490890913,0.0,0.038109086659897914,0.328365882264014
95,0.4942487349113001,0.5147760689575742,0.8952745379801388,0.6987645082647755,0.6280672576543957,0.32448642737259076,0.31895880320230086,0.00033832681484851984,0.09403514326153357,0.2867598023870008
96,0.446314159267058,0.49703175488212226,0.9197673235907666,0.681134266082898,0.6061022364501234,0.2633276613861179,0.3529934617237855,0.0018157870852356225,0.06799228891258552,0.21222275127522408
97,0.4143541908750338,0.4862426727418874,0.9376724067571183,0.6496442812595251,0.5868919055331475,0.20369499738777602,0.38407347456101437,0.004453875425179249,0.01472044885099778,0.1466237907902327
98,0.389696622622969,0.4792058699589383,0.9534473925660154,0.6082223144306796,0.5660392707234562,0.1828594131503829,0.4138105490505153,0.0081786533047681,0.031139943584452014,0.1336069587162544
99,0.3690809897633852,0.47307945524540157,0.9684101032528007,0.5686793241396638,0.5421695789807127,0.15735215260465996,0.44322246212694155,0.012821298396704067,0.014607122044441067,0.12708731013205163
