Frame,Center of Mass distance,Symmetry,Grounding,Arm fold,Leg fold,Kinetic Energy,Potential energy,Bone length coherence,Torque,Center velocity
1,0.040178842515684626,0.8113701521096899,0.9223795485435049,0.2531958368285453,0.42355716952783634,0.0,0.6928323701047421,0.988430599204767,0.0058671436175572736,0.000679902271977641
2,0.03990614282551585,0.8105046866747764,0.9222031452273041,0.2523162640365453,0.42443626349350566,0.0,0.6928323701047421,0.9909488390461741,0.0058671436175572736,0.000679902271977641
3,0.03974116881249055,0.8093078034516865,0.9221179010212505,0.2516323172213735,0.4249591552759718,0.0030404406641908154,0.693270963386844,0.9930939685311032,0.004167916857856614,0.005556074866976227
4,0.03957763349471124,0.8081761412694496,0.9220814672002375,0.25064407732113564,0.425706955431392,0.0036616396794607407,0.6935420176464876,0.9955471176891499,0.004506420981890106,0.005333979578070125
5,0.039469436928049745,0.8066723650847247,0.9221459148023186,0.25003062904028595,0.42625397450271035,0.005133434224111011,0.6935860338820515,0.9975017212685454,0.006129761051092266,0.008938385513246863
6,0.039370717249630816,0.8049934844340024,0.9219435157311522,0.24917474501057693,0.42654238005982453,0.008785702914046506,0.6937668618446166,0.998678498500511,0.004661712860558957,0.013180239266452398
7,0.03904148963244286,0.8032262615257447,0.921657025611705,0.24820963603239832,0.42759660638606983,0.008984082587140594,0.6944223153393911,0.9995764415818249,0.0040647267995053615,0.012893591986208744
8,0.03885576476258869,0.8005583845254204,0.922503731706423,0.24797427507988376,0.4299017193719566,0.01237574353322167,0.6939909777540219,0.9999946423580981,0.00962522983360253,0.019704265904375403
9,0.03794515357442967,0.7982164709571177,0.9227105247063445,0.24899163352612563,0.4345795820829344,0.015139220316546608,0.6927204978439246,0.9994280711957054,0.004814073314320074,0.024933487219869276
10,0.03686306741482216,0.7952739987568083,0.9237359205507782,0.2513451577427155,0.44227729910440594,0.02092135569618344,0.6911171265391616,0.9975166793763363,0.005875565709282028,0.030636911624340745
11,0.03513744606923717,0.792329922599729,0.9250680663038064,0.25391209550775473,0.4539107744224063,0.023131932550493835,0.6888141971465135,0.9944421809889635,0.006167876561629236,0.032618775008311285
12,0.0333157379867958,0.7881439594636761,0.9280206472530762,0.2567972042035438,0.4698405613818762,0.029309299974876697,0.6853903381892475,0.9898239566405032,0.02888139250595927,0.03169734867650638
13,0.03226980526918372,0.7817720280702783,0.9329751498600811,0.2599212692561225,0.48591541339920313,0.039025598581469534,0.6792068909340532,0.9832078359653604,0.008350062540434846,0.037111112150764194
14,0.03216469350055365,0.7746312689285592,0.9381602243755651,0.2639769440448476,0.4984815220761511,0.04046468615762468,0.6715305449844438,0.9745313064255007,0.021622461702168288,0.03697523977094991
15,0.03270756259098182,0.7659984999456881,0.9441749959086173,0.26970598095291554,0.5094212445487412,0.048207007530221606,0.6632549188181068,0.963141717017447,0.04232985642583354,0.039890238561904434
16,0.03417926551111525,0.7541642244976122,0.9519156668690509,0.2802408675060783,0.5192142288074512,0.06545635609108404,0.6526803641261937,0.9484068598554082,0.03373276613440695,0.046835672163079746
17,0.03643369733946367,0.739788005276418,0.9608386128361028,0.2950632926541944,0.5284412723612284,0.0793783741687466,0.6392718740685431,0.9299779469734091,0.037645727122366954,0.050357092029575605
18,0.04014797486822457,0.7222481167490584,0.9717418488116337,0.31334692552600724,0.5372401535351007,0.09309378190499891,0.6229897026701128,0.9079669632654681,0.04430013898760643,0.054248870057780264
19,0.045558171492065855,0.700623006678456,0.9852712027945332,0.3339090212328091,0.5499766014298084,0.11046100755364177,0.6034021413354933,0.8823605598237513,0.04667485646579307,0.059296402318215584
20,0.053492815431514705,0.6747089562509825,0.9979031515047705,0.3560825004868434,0.5679743068168289,0.12788643092610344,0.5799215993946879,0.8535550300491914,0.022693965479505158,0.07228834459687446
21,0.06395599343140497,0.6474792911589964,0.9793214256194026,0.3775609640124889,0.5877624414783043,0.13440884528952352,0.5539085797296568,0.8220165183180727,0.045731824414939996,0.08321891448990242
22,0.07811910172519769,0.6174006078321376,0.9578539621715294,0.39747678425690347,0.6095178158876302,0.14999512768971393,0.5259329680712255,0.7881871110015972,0.04615225955041918,0.09324918970613737
23,0.09622946550441784,0.5863616085243307,0.9327634559396248,0.414572929968339,0.6377258086424635,0.16607104083281224,0.49474610837633987,0.7528004516834923,0.021306133535851157,0.11526467097142906
24,0.1182710343331125,0.5541798727382572,0.9048908571705578,0.42794871773093934,0.6763342233323616,0.17816886349314973,0.46095553281181706,0.7167819059376016,0.015609060643185733,0.12724539669000579
25,0.14429233792154442,0.5211323928804856,0.8767387568157877,0.43980969769043615,0.7230247092262166,0.17926417697060293,0.4263920963688132,0.6808400171604756,0.04468203234488843,0.11796975908645252
26,0.1714954569430184,0.48902460412913246,0.8521411261216253,0.45248551228466954,0.7714655559996989,0.16570425724730592,0.39418045789157174,0.6452714202533387,0.02497701313910411,0.09676072558167548
27,0.20149479255138494,0.4570141610058712,0.8298613425508989,0.4636223752869511,0.8134058314175102,0.1571910938128097,0.36539448456590534,0.610332248466956,0.02428687378063492,0.08712981121431933
28,0.23132672396063103,0.42611644549362093,0.8112027726173918,0.47081158871328893,0.8361725306751202,0.14341508390392202,0.3397825111769005,0.5762274274993003,0.0045878803596191,0.08622389984169913
29,0.2618684625014159,0.3961091003340366,0.7946874855789473,0.4761100174490693,0.8315853387787228,0.1374707317320411,0.3172426421703222,0.5430100987314155,0.020247425514469862,0.09159342473736311
30,0.28990788710353654,0.36947758222427324,0.7807823313952962,0.4834045929193829,0.8199038892931599,0.12083632997297868,0.2974913751713315,0.5106149431521028,0.002472491925681731,0.09086264033306639
31,0.31815544493912734,0.3438146512856177,0.7675137203022603,0.4921187859241711,0.8126921321521812,0.11972572887162666,0.2797548420981722,0.4790023122803821,0.008369488939574007,0.09665320575350277
32,0.34775166293584375,0.317670429482495,0.7542753497777158,0.5019884730093734,0.8090555248240034,0.12524447822346546,0.26301274672069686,0.4481846560000197,0.004778593801427255,0.11220334759664682
33,0.3782668097492685,0.2915825690625753,0.7414371250003517,0.515257399676099,0.8084405803514767,0.12928971866195843,0.2476241523385258,0.4180581723441228,0.005302834701857967,0.11941146869680416
34,0.41054186272836274,0.26558246938103947,0.7287109752292907,0.5277221678218006,0.8091260972109636,0.1334815699404643,0.23355615891596535,0.3884619645005586,0.004755190150711395,0.12607012993634178
35,0.4425200835970337,0.24088363657479042,0.7168109437102959,0.5438981033905178,0.8132102943307199,0.13083455750622622,0.22089580382773333,0.35918557435561566,0.0038026023644181996,0.11594741474227684
36,0.47705179856487745,0.21521814024103975,0.7049770199429347,0.561036566162258,0.8159743288654041,0.13510875396930103,0.20950711027085386,0.330202297914005,0.010872522791855698,0.12101041952677508
37,0.5119567444231062,0.1900284210698557,0.6940050617287509,0.5756311488069751,0.8147451562583615,0.1289520533163642,0.19916560330366329,0.30164718616583486,0.012647915909776057,0.11287855573805511
38,0.5544670128821316,0.16239749821091098,0.6821140168875721,0.5831778050819021,0.8119280480450162,0.14534568253041574,0.18924075101016943,0.27389446865835176,0.024021760988399327,0.14579266344302932
39,0.603382019333356,0.1350852946556825,0.669465506445873,0.5783350572091517,0.8149297801219753,0.17088451360702078,0.17914984797865685,0.24761845740867225,0.02554763139673166,0.19930344982874962
40,0.6509215926009768,0.11408897820263317,0.658076482876497,0.5562781608033299,0.8254514172012846,0.18971180823481842,0.17008006921848498,0.2237438022010986,0.03518120271367533,0.2323967004355175
41,0.6985544179540718,0.0958017414833123,0.647763474801377,0.5155802441169747,0.8477072909315005,0.22149604514258794,0.16235250311218505,0.20308246573673275,0.006996907778031864,0.2724931464843061
42,0.740396466508773,0.08189806651797457,0.6397285100244989,0.4686742602169449,0.8825077506575106,0.2140834746679593,0.15548894994620044,0.18569513770514298,0.019867484462265703,0.2523197516313355
43,0.7827890303745808,0.07855675533821982,0.6332058122565656,0.4292854832826697,0.9258235344367103,0.19860742091936937,0.14903689051402885,0.1711342206024433,0.016103746998285953,0.21555424106850166
44,0.8222534708800563,0.0947522164842642,0.6292644780451961,0.4006228151366838,0.9619082409952768,0.1890859178000268,0.1434085198772194,0.15895638722646488,0.018324837624806318,0.20026285259798704
45,0.8480787244997572,0.12538621758821863,0.6284237465006635,0.37781330437657373,0.9647352338958831,0.1609647831721566,0.14013849890185276,0.14889567136312976,0.0023010020781040535,0.17504202197076096
46,0.8618051774473934,0.15731492875071534,0.6296569890926388,0.3542911924727809,0.9439740095513015,0.1536316033270252,0.1393714416493902,0.140756238474091,0.01821579645807018,0.16948902774396937
47,0.8722273919351449,0.18399872396499672,0.6308939297422995,0.33167803337912893,0.9238210185668762,0.1151093950683486,0.13976232107076159,0.1343053801451706,0.012579956398695946,0.12061706066051472
48,0.8763443926681396,0.20149453468536696,0.6321610910784213,0.3120159629315161,0.909780226442403,0.09322879042396999,0.1404480083049822,0.12914360352355989,0.012931450577754341,0.09668454547982769
49,0.8796982423485493,0.21208449269012403,0.632710670167339,0.2978693176204169,0.9032588565684465,0.07497808331114834,0.14110228359411198,0.12485901187059409,0.007773435748760842,0.08163997520637922
50,0.880727157304105,0.2180559792926142,0.6328794288427869,0.2921336065002807,0.9021768445871886,0.061864399935120086,0.1414579380442205,0.12099310143684455,0.0070801922567392105,0.0704970802305902
51,0.8781624947271546,0.22326659222495238,0.6330986481118125,0.29513054811183603,0.9013347486036211,0.07354527578028872,0.14180848458213982,0.1172402220484568,0.00017148981015540715,0.06746713566881289
52,0.8675336757590854,0.2267761250163863,0.6337864868412892,0.2993189138431991,0.8994027144776325,0.07476584868399402,0.14240969634653197,0.11361454347382045,0.00799512563770124,0.07241225444762353
53,0.8562093126147808,0.23086901391944878,0.6345503544556521,0.2938235464948584,0.898336198999197,0.06480849375133332,0.1430883764038536,0.11051655871659004,0.018496907370600373,0.07437691839743418
54,0.8444863678373173,0.2382045960570004,0.6356261313655411,0.26871340490019807,0.8975739164661598,0.09594888066153025,0.1437542353595476,0.10868199401416528,0.021699882890454197,0.09686987516207501
55,0.8318078058764763,0.24025016229403837,0.636568658906574,0.2237668319521716,0.8990435707651289,0.13759992405080462,0.14427823844174392,0.10877140361024863,0.0032855976984232284,0.11744178357120662
56,0.815295581883293,0.23184281506358845,0.6380832719951257,0.16851645529456474,0.8919835696629906,0.1530655233799378,0.14505179492022427,0.11095122855834215,0.009063419354785192,0.10950531699718893
57,0.7959686689687749,0.20890992560501773,0.6400843983716382,0.11538810950788642,0.8740865763522288,0.1479571351921542,0.14661044864959877,0.11504601876639003,0.007587396622204202,0.09555854998591037
58,0.7792941968102918,0.17708096149657215,0.6423371517269997,0.06574974527441346,0.8543244640848615,0.14194553715622635,0.14856799954046787,0.12088256896726624,0.009315310715213772,0.09260077132560705
59,0.7675460829495813,0.14598544660921406,0.6442646748263553,0.042553645696381974,0.8382981730064956,0.12300001284701421,0.15075494458075542,0.12820243461953879,0.01621615375054012,0.07281221149918264
60,0.7616750235750395,0.11585512281147324,0.6453884469580319,0.039925546268536574,0.829372276058609,0.10145962853859347,0.15255182944410514,0.13673173714386455,0.011739629281209031,0.062548591748977
61,0.759312261276426,0.09575687646627495,0.6457811965898415,0.03678977837278387,0.827558073021094,0.07691004527271438,0.15355131986347526,0.14611419110130636,0.006525480253117782,0.05048109255439829
62,0.7567034212190394,0.08968794091397411,0.6458775051459053,0.03355742553282903,0.832024184336247,0.06084762712961628,0.15444322640663002,0.15597616474979964,0.0027751059443592466,0.045204462634744244
63,0.7508070454608327,0.09531115813739197,0.646378929956791,0.03109850115491448,0.8378930498353461,0.05893284463122887,0.15577032731254362,0.165995924127023,0.004227063677168581,0.06528089534791384
64,0.7429860476150141,0.10749578942513098,0.6474461575935365,0.028861236422048544,0.8396810341139452,0.05674422064421613,0.15759898699568453,0.17591990715285305,0.005898954320599788,0.07655396864154167
65,0.7336848148875805,0.12012521375787477,0.6489039080746682,0.027064788305410776,0.8398705688957749,0.050951839690768726,0.15952856893717376,0.18566907078737174,0.0033954629851652954,0.07160749737110492
66,0.7246788765144959,0.13239373795752765,0.6504367331032188,0.026916493945780346,0.8381927713711004,0.046909142587738845,0.16148709338448172,0.19526414578567675,0.011284344781604394,0.0604236594381811
67,0.7155325775967482,0.14234385881299072,0.6520591863255628,0.028244436722371574,0.8371899183116999,0.03656554271136904,0.16357510152747942,0.2047483967086944,0.018852762720182294,0.038896149410977736
68,0.708437151641158,0.14802969957575332,0.6535095804553849,0.03083317155860718,0.8332690895790572,0.018353753786931274,0.16545119394638286,0.2140949307247643,0.009142073831454857,0.00665647436997688
69,0.7039454779126337,0.15075532201480887,0.654372301525724,0.035599294001636875,0.8324790444747906,0.008715446172908875,0.1668344647013726,0.22325593011934752,0.00629460721063068,0.0
70,0.7035039900155442,0.14987781690396473,0.6544841180656297,0.039506191656245686,0.832329399975208,0.002083292168188445,0.16734822057842977,0.23213560320879081,0.01052111618923561,0.002290329162770593
71,0.7034994760499336,0.14530962705963968,0.6545680599986812,0.041952529610944915,0.8325141643042208,0.015295225710027276,0.1671568119182785,0.24070548408350906,0.003831922280095638,0.01838437630074071
72,0.7073002071715833,0.13709650963599113,0.6537435124270297,0.04347748184257678,0.835945791345175,0.0217882506484804,0.16633375124532318,0.24898643523330108,0.007794385944944388,0.02997900937289152
73,0.7132214649595816,0.12696357801635258,0.6527344198476603,0.04469208670174335,0.8366279641376339,0.03292380119947933,0.16483588781334513,0.2569727734947353,0.0024766028221794834,0.04352062751357424
74,0.7194064694781399,0.11783101045368843,0.6519021978122101,0.04501375169666079,0.8333957747358102,0.03799500990199345,0.16325041076245894,0.2646360528739737,0.006947904484617,0.04851811995804739
75,0.7234526837261493,0.11283374541495104,0.6514989504682616,0.044238762208240814,0.8294672176099261,0.03000780006779688,0.16201399172259653,0.27192969135589157,0.00545892863746844,0.035990673358980665
76,0.7292566018599004,0.11159111524620903,0.6503943843781123,0.041885238847252676,0.8314150455114993,0.024055582546151533,0.16069695346218135,0.27886813460414256,0.0019484571736166963,0.02611257621269023
77,0.7374108664341553,0.11524462349452497,0.648605836672416,0.03775895364457397,0.8381805090074065,0.03229270803302263,0.1587821560429192,0.28539012283936,0.012301218313449696,0.029292196530208155
78,0.7485592548768689,0.12451432793802512,0.6461669875109526,0.03248962218734224,0.8496301913512951,0.05286609694194879,0.15636237262066016,0.2913189813587257,0.00933849661021501,0.04300827509714098
79,0.7593056234115197,0.1418513501775021,0.644057504067853,0.02571889008640891,0.8615269041494074,0.06993553593443752,0.15393782343036577,0.29644479428616416,0.008920429887597753,0.05417603317611094
80,0.7690207027191497,0.16687918560794204,0.6424858693156367,0.018902352957448968,0.8724439290088732,0.08762444986087299,0.1520905904980208,0.3005781026710871,0.01143892214964792,0.06505771372645525
81,0.7756907755464357,0.1986087942243358,0.6418963671093417,0.03939209265668087,0.8770931804249885,0.10970730550443457,0.15116065926874558,0.30346801436151294,0.007163881959893238,0.0771981277384448
82,0.7806603243118575,0.23005027120758562,0.6418377548832318,0.08673144770877515,0.8762872405150882,0.12499632757060675,0.1511433229290948,0.30499142418859876,0.013016766606997762,0.08638199512238066
83,0.7888090001893784,0.25419177579629637,0.6413197882229148,0.1387282407018691,0.8720210434664442,0.14024642758842648,0.15132112930215896,0.30507333741082426,0.0060932473914811,0.10920201865852941
84,0.7986815456643142,0.2662298243380493,0.6406248714905565,0.19299712261728724,0.8669155843189637,0.1493758830249518,0.15107511289261383,0.30367799880306195,0.00304911291581793,0.10530446118283486
85,0.8096538145266663,0.26953493002964307,0.6396566563660318,0.24768163253649886,0.8626394358124388,0.15152457637524588,0.1506193571098901,0.30090746135352886,0.009193718473190811,0.12148491026277945
86,0.8238988680200316,0.2644036168894967,0.6381814096980016,0.29238520486674374,0.8606716374154506,0.12715392019474003,0.14985558658078904,0.2971355235058869,0.028468715264231503,0.11341162339877238
87,0.8408906967642963,0.25957299279262136,0.6364276953098579,0.31509841696578605,0.861116056234671,0.08066868553996737,0.1484070621440397,0.29294825545905967,0.013204110041994586,0.0932410327330481
88,0.8609364495119544,0.2557365914177094,0.6345239113549987,0.3143736999789347,0.8638821135219324,0.0646691492674028,0.14626875004167655,0.28885635629890094,0.02209418371742001,0.05879006009219283
89,0.8854425468599362,0.2513267172166222,0.6323714827258754,0.29825287733748784,0.8696877392396899,0.08986923831084814,0.14351297267538332,0.28518153052748024,0.0036884877452572724,0.056319560604127725
90,0.9081172948225172,0.24524645633460176,0.6305946654182135,0.2781700019771364,0.876934967304098,0.09756897846193587,0.14070756391995612,0.28198760206753976,0.008084216127612459,0.05710060711925249
91,0.9223801584874939,0.23752117731688,0.6294186830742695,0.2627690407993193,0.8836789716016636,0.08901150344877565,0.1384589572524741,0.2791618434945072,0.012408401306118552,0.06382808153504173
92,0.9291857015000251,0.229961259711356,0.6285392610982545,0.2556969964828061,0.8892960936592954,0.07275025230869626,0.13703248138620794,0.2765350073014051,0.007026277127935573,0.06778238853051627
93,0.9311872749190258,0.22223528689778826,0.627513984546004,0.2537617917725494,0.8990751119561833,0.06326488607209475,0.13611267069856442,0.27399328020763897,0.0033584391163892463,0.06137239090629303
94,0.9298213390190234,0.21336743621608523,0.6262910010818011,0.2528753928682438,0.9141404234467329,0.058235092719747784,0.1352497647103545,0.2714816977431247,0.0025627738151709524,0.05721935178919805
95,0.9285568442176358,0.2019724946580424,0.624605442294439,0.25317242955019376,0.9352327755278234,0.06965413472486867,0.13433032013961457,0.2689546799849201,0.004086942890722299,0.0717006339120511
96,0.9264253140223694,0.18823091381274507,0.6228987687906155,0.25553827759585107,0.9593635525873851,0.06900137754964614,0.13344577973907396,0.26629881401431754,0.0026016447369106646,0.07203927643211097
97,0.9171668944595681,0.1702334162486567,0.6217389306554915,0.26266378361472514,0.9757816176048153,0.08359868730486338,0.13295285855233038,0.26337310490640875,0.012888418353754543,0.07859455095652895
98,0.9062023760236472,0.14843545441845604,0.6212900739334234,0.27924327758736434,0.9606953661497994,0.09931378023078415,0.1331750516836329,0.2599740353447083,0.025650182805653232,0.09245353415975817
99,0.8813889028441044,0.12127990668836629,0.6225652278458329,0.3055992147140135,0.9268133653999404,0.13829349580335892,0.13470378279222703,0.255857907037943,0.031383851011758446,0.1300415419996318
