Frame,Center of Mass distance,Symmetry,Grounding,Arm fold,Leg fold,Kinetic Energy,Potential energy,Bone length coherence,Torque,Center velocity
1,0.9999999976908583,0.5530820248407189,0.0,0.22299827397552718,0.3668621189377595,0.06762524866553149,0.0,0.9999991130394889,0.16210590854585324,0.17868449013480325
2,0.9558258248575242,0.5623942143938757,0.014067222295218562,0.23572242527705697,0.32015729967995565,0.06762524866553149,0.0,0.9750511803979824,0.16210590854585324,0.17868449013480325
3,0.9112877126510066,0.5698251681549837,0.03268898309117551,0.2421360114768794,0.2781434425178882,0.1911361793672532,0.02595086216427637,0.9484731836726165,0.11912565969649479,0.3179027487395463
4,0.867639039616077,0.575412812919696,0.05541109539464067,0.23161969644392377,0.237704157006989,0.3211399448362145,0.06216500090911926,0.9195761923940158,0.16631842104307165,0.49195018154317005
5,0.8243507129678865,0.5824930022802756,0.08227292897708628,0.21743394218351736,0.19761404253751338,0.4646940454242328,0.1099634598655031,0.8888656576149361,0.18151897778621373,0.6540415057616227
6,0.7738832663752166,0.5993286161995358,0.11378704345587219,0.1953073151989448,0.13833161790859347,0.5969771080201405,0.17099650581737846,0.8566039171076466,0.20903855050859668,0.7259829673483594
7,0.7210767501114734,0.6226036071377095,0.14906585509422843,0.1673999611254454,0.06797669380481673,0.7559526056417847,0.24584071938264976,0.8229287470730431,0.15265444469015574,0.8859277514675875
8,0.6646293532721342,0.6501490439773145,0.1865182355972448,0.1316264333297126,0.0,0.8623967610498633,0.33165824361901,0.7884749756337485,0.15258230637737416,0.9999999921157263
9,0.6118738279911167,0.6714526975896384,0.22136131433278222,0.10758585099946044,0.003952980577064392,0.785405435409698,0.41919034413231654,0.7543449017994929,0.337465971756424,0.9542553745120204
10,0.5662112433889602,0.6815186080497659,0.24841965183631848,0.11157767398327732,0.08287822871700662,0.5923979954069908,0.4974193270696357,0.7215714611330808,0.09866577077794635,0.824137953615317
11,0.5265314358995361,0.679910107521338,0.2678940010166255,0.11231995547291984,0.15437161013064504,0.4606502288158336,0.5612366324497144,0.6906583783786857,0.18064027748523176,0.7614389268245617
12,0.49402338386211325,0.6670002004923224,0.28112632075075955,0.11442935094111208,0.21492282849693498,0.3304123527505778,0.6120466864194495,0.6616258968436384,0.26858224765780453,0.6822937247003099
13,0.46742709667258525,0.6458967256544571,0.29288936876659827,0.12319646812268885,0.2644274088365363,0.2474270117446953,0.6558020973811457,0.6342708533178131,0.2958162054176704,0.6166885876045513
14,0.4454042316150541,0.6174546265275034,0.308091603856173,0.1365648362068958,0.30177944664399164,0.23986774484016982,0.7005137401130219,0.6084250928988754,0.17886351023018243,0.6011888505026571
15,0.42601161250436975,0.5832107635016908,0.3288377487405623,0.15194352958570084,0.3318307326377603,0.29639644636361456,0.7509109256656831,0.5838445392914785,0.0,0.6256603169267567
16,0.40670952388571596,0.5450301303113334,0.35376952278560064,0.1691231659628456,0.36325804806489204,0.3330695330761514,0.8067100875161707,0.5605960293093321,0.008267889108788399,0.6027466682924888
17,0.38562861830997686,0.4991010654426821,0.37671650217885133,0.1863486220785763,0.40201697174605616,0.3726302850630782,0.8609050505127545,0.5387565897268863,0.09474762590414555,0.6492928361973861
18,0.36298199812102677,0.4432341898289886,0.3946738373253983,0.19826131560145493,0.446458481598052,0.4125626680804668,0.9063230258795699,0.5183620069680905,0.5288887250231711,0.7528766699884454
19,0.34055882156855694,0.37765034358629856,0.4026052783848698,0.20046788177877142,0.49443781819564736,0.3789223875110651,0.9390163973228988,0.49962841773130656,0.7909940559024871,0.7633555806277871
20,0.31854824877772825,0.3061105821771844,0.40056718324000423,0.20353500097585592,0.5457631563827368,0.4039607267795436,0.9551722959623206,0.4826931957680605,0.14734282136886623,0.6906359853607521
21,0.30107046934083737,0.2336517180347618,0.38938423179517545,0.2101366439293801,0.5867727218658744,0.3675800023644749,0.9573172125500168,0.4673974672625994,0.29035766370593974,0.5400830439501842
22,0.2883869320066897,0.16112648921282113,0.36971059568524084,0.21783250297585505,0.6173998085910671,0.4225529266792161,0.9482412543804003,0.45357073956915206,0.09190912232117314,0.4672034059308265
23,0.28142073518980754,0.09736908413579612,0.3522471308818226,0.2271457866298448,0.6377728077828884,0.39266283757694515,0.9349390207005999,0.44104499973040656,0.449790645234859,0.4355003978666652
24,0.2766037673539844,0.05510057710476436,0.34045711512128773,0.23687435522011108,0.651757294933843,0.27413012978396956,0.9267139046547822,0.4294611953951694,0.31045144553327725,0.4164540231648077
25,0.2724918023052261,0.041242712784585044,0.3382351767843096,0.24666868622904198,0.6612727628710847,0.21121874846173241,0.9263276155484547,0.41852661343194536,0.11197141946953117,0.43649491608595026
26,0.269085957276187,0.05144312050138994,0.34567314731314647,0.2559294073597862,0.6652125247220804,0.2274965371905996,0.9350869882783697,0.407952107966986,0.14303663043686807,0.49808781919712003
27,0.26541488586439493,0.07514753017995625,0.35851391734478344,0.2566364845709004,0.6652496115267689,0.2478184682386003,0.9510891594038648,0.39748363122303276,0.19172072544476812,0.5677690806542683
28,0.2627094969881952,0.0961839799168663,0.36957191562603336,0.2526804010482953,0.6639019999067595,0.345862155336788,0.9680409617877849,0.38704637747841864,0.3398629882918176,0.6644255835889046
29,0.2605937812699805,0.10348655437553461,0.37245695474356877,0.23948718409793449,0.6618633478662677,0.48524692114946294,0.9777120440339269,0.3765307260296553,0.07217883339851634,0.7594812609432147
30,0.2595341749776652,0.1005801016207557,0.36901735217841736,0.2283647087205152,0.6514511405779073,0.5316170720781739,0.9798258054425262,0.36598045244484506,0.22277420308552892,0.7979428894707273
31,0.2590015745683087,0.07943980911568022,0.3541947429716643,0.2082968581556048,0.6354179559089038,0.5836680932709134,0.9724694661658455,0.3556024411476009,0.09154889041939769,0.6818284691576294
32,0.25702733396857214,0.05920516542682118,0.34245861566375774,0.1908415298634018,0.6220489245398619,0.4586804301846445,0.9605637085739838,0.3455878192120956,0.07588080929712301,0.48445402134811333
33,0.25368956357184813,0.03448211917872936,0.32601477463313133,0.1623383704652218,0.616738662899126,0.45886585451001427,0.9497783406754573,0.33609321380493995,0.028437259081364442,0.3312474575099495
34,0.2495701049954806,0.013746198402137014,0.3119161552979395,0.127769106945878,0.6169001084449182,0.3965330889975368,0.9394118069928072,0.327086767503545,0.13168720166228606,0.24271265762009156
35,0.2443501104440042,0.0015293399497702026,0.3042834290477409,0.09404764758490163,0.6226584947375918,0.2743891434278463,0.9342710224537155,0.31849630917566985,0.1178109925652728,0.20519147821271108
36,0.24028807740149272,0.0,0.30350465702503543,0.06270615523534603,0.6250838386093885,0.1796954037372769,0.9347614736524381,0.3102325017536565,0.1040842730894407,0.23026351378265886
37,0.2365756821822431,0.011580955586125959,0.308531883646179,0.03188722270299682,0.6274766318663528,0.0923411026783935,0.9398972094211813,0.3022107298188524,0.05405422801244616,0.22923877011966473
38,0.23336112586088453,0.03475323471996713,0.3174593046650694,0.0,0.6297324674450302,0.0381038446370312,0.9490486877647766,0.29435264446832515,0.04343751062086492,0.2020595545180753
39,0.22976833337268232,0.06546232773544781,0.32749867478503214,0.0003277559945461018,0.6344881050354981,0.11303708500151889,0.9602453207509775,0.2865928883849219,0.06889875661078454,0.24288006608704796
40,0.22623667556552066,0.10227807985390037,0.3347274179481151,0.07554247587898628,0.6378842949090345,0.21423829243962642,0.9699727028860887,0.2789448038783532,0.0863022765863164,0.2920330043107667
41,0.22203105143107418,0.1438632262547609,0.343870557406192,0.15853982813048392,0.6440044913401155,0.3320900863256248,0.9792334862460547,0.27138548774724697,0.08614511140169873,0.39527854007353697
42,0.21835785189906134,0.1900562722368909,0.35333164187055904,0.25815657842238565,0.6475410729309728,0.44192405329333995,0.9900815884754374,0.26388377935931934,0.024235110876528573,0.46080595580818023
43,0.2122530613538425,0.24506968803796772,0.35354605111981396,0.36346024716484565,0.6537762483893615,0.4926455881327993,0.9977720262282347,0.256530080388063,0.21567444323844442,0.33732683609242886
44,0.20488749084717453,0.299562883048,0.3487490067427884,0.45912070421939966,0.6628532122112386,0.330083980257059,0.9999999844428606,0.24934655160306582,0.015626732291859135,0.1427532853027962
45,0.19516859099564757,0.35712642560325414,0.33477985610051986,0.5280915514456141,0.679613048339843,0.3257594961949103,0.9950792322988653,0.24229724660973256,0.13067420803985905,0.05687707427870034
46,0.18657264276090174,0.4139300548913554,0.3179141972097594,0.566132063495232,0.6974681602305335,0.2455825507371197,0.9829435996649079,0.2353750091614542,0.21888462595346633,0.0
47,0.17939148238959352,0.46418188178198777,0.3079141655034258,0.599900383118742,0.7186077571235236,0.11039636487314321,0.9716890315639356,0.228431580590948,0.16591051856300879,0.029793839089566405
48,0.17400142398477378,0.506376310189461,0.3055004504401395,0.640305417352471,0.7374482273538996,0.02951558754293803,0.9648418716090896,0.22128849272859777,0.17732265385704932,0.09858290368383066
49,0.1703614267111507,0.5385924080078448,0.3125771080662738,0.6964934569567424,0.751799062752169,0.0,0.9630756010754018,0.2137810457270126,0.027709484183773316,0.18293360875518877
50,0.16882512413244882,0.5631417511694204,0.324876226242014,0.766036022038463,0.7594720187543786,0.0736376168380808,0.965937229052938,0.20576713151969786,0.1839545150715638,0.26881731197084974
51,0.16819131886419758,0.587089750537555,0.3361502095041133,0.8393047805600197,0.7659314769536558,0.19508120442831184,0.9683141434777209,0.1971991840202789,0.6473841920953686,0.3617248928704638
52,0.16411150834831945,0.6217088190606782,0.3358908487873909,0.9051174456859732,0.783564765162182,0.3759316934541718,0.9617269051018923,0.18809505409396535,0.6163012333313072,0.464266581126084
53,0.15700424200695698,0.6669390439351097,0.3212108628885611,0.9508892393568675,0.8095031011373334,0.5375731518677743,0.9408626022566118,0.17856629839282903,0.6038120923468228,0.5178362186593406
54,0.14828002847986918,0.717189530403437,0.30413684681218084,0.9718765027143161,0.8282242347197135,0.7306706649227156,0.9121412289341445,0.1687111785446674,0.07356666235555849,0.6275440567955112
55,0.13913820852489162,0.7650896653472556,0.28848967529296354,0.9916790582885519,0.8351751927048535,0.7709103814069814,0.8827236200605796,0.15862203801758235,0.05568007366537023,0.5418286133382231
56,0.12799845567401183,0.8124543782752018,0.27004792419285295,0.9999999111069425,0.8475469505395061,0.7515568887900408,0.8530025232533185,0.14848012734035007,0.03362669855116663,0.48719386842872753
57,0.11609618285353505,0.858373957137859,0.250097813823559,0.983407006746252,0.8597632001849428,0.7724996337253403,0.824292707645594,0.1384220323403257,0.22143314428763794,0.4348979040209954
58,0.1052842440760556,0.8989771261339047,0.2309675856087106,0.9483250058890924,0.873830936404539,0.7239332625723109,0.7986405431412654,0.12852416674019881,0.2976971817473256,0.3963907193103317
59,0.09570018966865369,0.9323556362234151,0.9984243816495341,0.9194435991580782,0.8866278672042799,0.642367539576521,0.7775649740680033,0.11879420356721278,0.44984952435355713,0.37584250752987813
60,0.08726676406311727,0.9570814177600953,0.9999999878123228,0.8956262057079876,0.8982332224829529,0.5410030264124401,0.7627502266412519,0.10922546332127209,0.6404452751941092,0.3751672933077052
61,0.08108874499147081,0.972985625149642,0.9931939718868112,0.8803122993418464,0.9048264394598451,0.4228615006423721,0.754451384058938,0.09982002475210665,0.03433570800960682,0.35367027977468185
62,0.07459264564966456,0.9834697061008416,0.9801650704780764,0.8691855886078799,0.9114030343173481,0.45700682634143047,0.7519135040141172,0.09057789945850948,0.3845604846548933,0.4054652308618733
63,0.06646124920626284,0.9921295089560119,0.9647734026609331,0.8526835837934876,0.9202727890486675,0.5538721413687767,0.7545376903449003,0.0815434356716828,0.648863014792684,0.4619840354785878
64,0.05376433246518713,0.9990690844851624,0.26808272819273415,0.8237100023928399,0.9312698489459446,0.6944282709097834,0.7612998312020673,0.0727923209197245,0.43544850882270036,0.5328887119864616
65,0.03029294430786908,0.999999994895146,0.275364207407727,0.7811210203940944,0.9432363132444027,0.8112575366434474,0.767370885219482,0.06439448259025041,0.7616538466505871,0.5945798787632764
66,0.012853357552623405,0.9987144488927613,0.2792599803496575,0.714425043251072,0.9574708643266565,0.9999999973694385,0.7711358409510252,0.056406506610972795,0.9999999998573578,0.5442096938037675
67,0.004283764823879759,0.9880787792380116,0.279249052141487,0.6316500692624527,0.970469270812054,0.7775413376049175,0.7741091756543698,0.0488299300296124,0.09707480408142849,0.30664966646022307
68,0.0006583155536407538,0.9693863165030138,0.2706595745930496,0.5304964461097483,0.9784907969484193,0.8212542916007476,0.7715008944539217,0.041678944752924656,0.3970147157591232,0.2456562268727556
69,0.0,0.9445290729595125,0.26081987553628694,0.4238551014679078,0.9888024930902097,0.7302850793987904,0.763167153189978,0.034935987369579174,0.7850963883924611,0.18805986286190654
70,0.0007809599812140763,0.9143808818885986,0.25612254909895144,0.3321289425520915,0.9977057670766943,0.5150977348792478,0.7546967104387186,0.028564167030774645,0.9253589169423349,0.13951588882615606
71,0.002466606291487448,0.8811678207605733,0.25911341309603686,0.2635925897164077,0.9999999529539306,0.2738868130924808,0.7484648820010584,0.022502907520537335,0.536349106884557,0.09233086326391989
72,0.0038908774083152263,0.847828860847495,0.2698610784873048,0.21420999657808348,0.9983439661576687,0.16476986507153474,0.7459548580164868,0.016687779693307554,0.36985439513665613,0.078584423972249
73,0.005461595918097366,0.8123553456069865,0.2836527123822194,0.1789326405598596,0.9911963431003962,0.10517971872587564,0.7474489852069401,0.01103667563508456,0.3587078734580171,0.024802683131410437
74,0.008860215255715035,0.7741194760740674,0.2970043487077122,0.1576716818376606,0.9820724056721593,0.2407659872101088,0.7496253786010654,0.005487860225207734,0.4821160910301547,0.09359568853960265
75,0.012803142544589939,0.730031858504735,0.3044053640189626,0.14569195932314866,0.9786833926738777,0.3804884574746856,0.7470208984338493,0.0,0.4821160910301547,0.2216946126798865
