Frame,Center of Mass distance,Symmetry,Grounding,Arm fold,Leg fold,Kinetic Energy,Potential energy,Bone length coherence,Torque,Center velocity
1,0.15594370682911773,0.5192009170524767,0.9982158585686283,0.06483581437770915,0.7484095232655804,0.02096418100990132,0.3198669605282523,0.4757791538293888,0.053451950788967105,0.0388522632845537
2,0.15478773944906826,0.5191899517104165,0.9968585800898652,0.06215690918920561,0.7473796136726835,0.02096418100990132,0.3198669605282523,0.4770319298758731,0.053451950788967105,0.0388522632845537
3,0.1536760352693957,0.5183807753250098,0.9953448153364164,0.05806048985432472,0.7454441982460106,0.0388924462042007,0.32274344384123815,0.4773029025459767,0.08450061767419664,0.062330216732525784
4,0.15334614663335516,0.516714227776533,0.994234216091963,0.05113963531460579,0.7442050957164272,0.061055977497159825,0.32527267397257104,0.4771924098463145,0.02115720216291889,0.08247407786982908
5,0.15316317445555544,0.5151886407774886,0.9932343894654532,0.039472986545096206,0.7434653202476513,0.07299140270127519,0.32792707967814116,0.47508890797625075,0.11881119584588008,0.09614108329649483
6,0.1530284885933454,0.5141595077116435,0.9918880711976872,0.022030230336324674,0.7424107977773604,0.10363001550145148,0.3315311272505647,0.4702074488964299,0.007285448320867252,0.11763722996751415
7,0.15318245048386167,0.5129540128439266,0.9907413138979243,0.0,0.7417341316836675,0.10867864999096268,0.3351178461207461,0.46238797305766083,0.006862880917581311,0.11874210858186171
8,0.1529431157841529,0.5116073006679267,0.989174386800648,0.016494238905896956,0.7414923520701047,0.1154059148894916,0.3386176051852209,0.4521160919496522,0.06442052463345209,0.11213981028796839
9,0.15244265484190037,0.5108980482267471,0.9873936611020536,0.04163164452904197,0.7409339456698608,0.11062899999543616,0.3418456043610997,0.4396713645185767,0.006823475091700173,0.10544182714470733
10,0.15167522371558326,0.5097558866322351,0.9854205251750584,0.0622449315041572,0.7406081828839948,0.11303731287846809,0.3444674023270756,0.4259005872964498,0.06693144160549226,0.11025894794396036
11,0.15055880536369157,0.5093440397806525,0.9833354035582229,0.07738651673545496,0.7407587724894226,0.1029028009144506,0.34666836747014496,0.411108132561859,0.11678596409004184,0.10888124125062099
12,0.14931670584456402,0.5095472993914005,0.9814138338278225,0.08768747903669202,0.7418321325263295,0.08088650817736585,0.34846184173363215,0.39615266404288657,0.06656000753782076,0.08784489460735134
13,0.14747282941791992,0.5114830544241694,0.9791886130478896,0.09607386621703892,0.7420280867325783,0.06543558951062045,0.3501841393914183,0.382093024611134,0.051154982635864224,0.08224457351631748
14,0.1453554016077809,0.5142870268810508,0.9768794349235211,0.10306442566846839,0.7419668439023491,0.0524147119856113,0.3520161418239989,0.3694183827297301,0.007534400980501655,0.0650274025999853
15,0.14282195129322964,0.5172355765941979,0.9745845795603201,0.10769790271376199,0.7425344616957995,0.05171789168361543,0.3545918526209099,0.35814817982102654,0.010005233037910526,0.05358018783902772
16,0.14008995488118625,0.5208751514346213,0.9719737083270243,0.11122914872230343,0.7421484491459064,0.05484330059230446,0.3576577433717944,0.3482931707768322,0.03775703296521529,0.05427368997160755
17,0.13676871047312242,0.5254067825051345,0.9690368825468656,0.11182126459010987,0.7419282761044939,0.06541025720256807,0.3607654214744476,0.3402441205733612,0.05570826864859342,0.05618610389720873
18,0.13312755741012802,0.529632950941797,0.9660914162896876,0.11367361884724433,0.7412880806054931,0.08070456518077919,0.36392479118962967,0.3342436169426177,0.07411697852716716,0.06785122310275013
19,0.12880501699230412,0.534318724130753,0.9625824674954704,0.11490548032610423,0.7393820432157504,0.10058314138071739,0.3674665067677427,0.3303859197759058,0.08912029243525696,0.07850283510582085
20,0.12358081093043585,0.5389973291589356,0.958470643250513,0.11694668355344047,0.736969216724331,0.12213830652936021,0.37238435277488835,0.32872623044989663,0.10701038798882129,0.08745806024252435
21,0.1170631464989492,0.5445019574950337,0.9529109432098691,0.11487909596505268,0.7324872606753703,0.1483585867402919,0.37973238101780077,0.32889416158250784,0.01936195922447747,0.1012146260037813
22,0.11100119946707929,0.5498054389482628,0.9477956318407484,0.10931816932035669,0.7269968991886844,0.15828128718121948,0.3887598788107129,0.3306569652701417,0.1297334892727168,0.10856134549839398
23,0.10593562927194163,0.5538544774473126,0.9437153687470707,0.10384163836061133,0.7223872180181905,0.13729829533505308,0.39693360488348817,0.3337857231494383,0.1323931519859334,0.08723904064253218
24,0.10111118004977884,0.5569138168460469,0.9395511483089574,0.09669970598941922,0.7182131971159268,0.11591819142740117,0.4042395147442955,0.33815018520023504,0.33756274267650405,0.0621052039545615
25,0.09832797105696192,0.5575212069786157,0.9370683732115698,0.09012212788855675,0.714431853714731,0.061005111073792785,0.41024163470374525,0.34299411112500167,0.3118110911391085,0.022075910524904152
26,0.097329721490784,0.5574567415741402,0.9358098643235607,0.08863276904425817,0.7126323637328736,0.012255876719936777,0.413353920025777,0.34765867612692,0.03591859997437903,0.005825428569584777
27,0.09834076270810639,0.5566565714927524,0.9369213574104643,0.08721588086067655,0.7116327864160165,0.009379294748086197,0.4133050277924222,0.35227929662995267,0.04377411881369885,0.02090467088900433
28,0.09951052386174149,0.5542236436789272,0.9382628446726062,0.08129727515647184,0.712282588465883,0.021532074218913854,0.4114955668048413,0.3568454595208404,0.10735632547681309,0.029744187996789687
29,0.09902533616641371,0.5521135846786314,0.9380609852525882,0.07680288875819366,0.7130243704770252,0.005842745063133252,0.41068026436461,0.3614071553057109,0.11551939132798299,0.0063014346700178015
30,0.09829428980339297,0.5496908723771832,0.9379742612529495,0.08017445202424785,0.7118670025336403,0.036208888244184924,0.4108616533001522,0.36641433050004046,0.21288963742104872,0.026616540136256247
31,0.09745461993062653,0.5472780636131596,0.9383078134606397,0.08549869427306359,0.7083157873048636,0.07695396570313034,0.41210487262652584,0.372136710404438,0.192908095713587,0.05918880646062351
32,0.0961347840065618,0.54731214120111,0.9373508487078164,0.08784064706285666,0.7050531775286079,0.0509855000488772,0.4169712472476573,0.3772812379418018,0.23614883081217497,0.031693030158333975
33,0.0956875842208102,0.5479721380917741,0.9365901462187153,0.089166269836283,0.7044167330937104,0.014712253892648684,0.4214418842799804,0.38158590826900324,0.009912599497978484,0.032794451447642564
34,0.09631946232726565,0.5479141635242711,0.9373531258778682,0.09346117437984029,0.7071817434939941,0.008103373264180608,0.420742596351351,0.385638736369447,0.030491890938812032,0.026708053913273924
35,0.09687787448058353,0.5474164975544755,0.9374583013395159,0.09691434021056952,0.7082741061649869,0.01863550767252974,0.4185397263819948,0.38907454271724806,0.07640849819285674,0.028697959861957775
36,0.09773281875930609,0.5465723373498242,0.9376161922237662,0.09960793292207232,0.7085616130706152,0.03394082521029015,0.41764812051531564,0.39184873316532354,0.009487641607380979,0.03461247034315533
37,0.09882566827753507,0.5452326177225088,0.9381473474588542,0.10483039133824942,0.7097373937948241,0.03907106579234946,0.41712078102092665,0.3939967756179867,0.056798592927856564,0.03803260283456922
38,0.09961718044491277,0.5447734101950663,0.9383929413130458,0.109999381286142,0.7109626912718485,0.03155450585164942,0.416184874068424,0.39551186985702447,0.009151706008457761,0.037844801082986664
39,0.1003773762834449,0.5443676677215559,0.938453360806291,0.11464349628398832,0.7122051176286741,0.035980056284546834,0.4153840902485374,0.3963107150731456,0.01804270653425622,0.029454144591052837
40,0.10107709090698207,0.5447100916051528,0.9384933283329957,0.11873610390075547,0.7138680102113458,0.033724931587521836,0.41524983830992085,0.39654748112932975,0.03559263044665228,0.02883195928971684
41,0.10239698483643059,0.5440271632117933,0.9393125987845523,0.12133101289727474,0.7162222498427854,0.030457090494793386,0.4148926116347064,0.39609916369669945,0.039436530923883606,0.015335020440807355
42,0.10348303117731206,0.5445192894051639,0.9399269664953672,0.12304082505027142,0.7184813179486466,0.02775412127702408,0.4141947316928119,0.394894997686331,0.008976216123702722,0.023147280185968844
43,0.10526726674204223,0.5452110880683778,0.9411936263752442,0.12404338489630233,0.7208612980119853,0.03673449053512771,0.41315130519124726,0.392659896330874,0.05727582217181459,0.03841262017306813
44,0.1069637598032476,0.5459783690270302,0.9421850891902551,0.12426381674856488,0.7235973016105172,0.05203446241665413,0.4121187250080724,0.3893074467682075,0.014548583759912316,0.04297956850229732
45,0.10871606344616941,0.5466830792820977,0.9432104541724868,0.12958766300228278,0.7267987106556214,0.04973045391335527,0.41121983965731707,0.385072004995414,0.0825832440794194,0.0442266869199797
46,0.11133380555286558,0.5455215912665016,0.9453481848021094,0.13193719337089224,0.7313187900099786,0.0664939287895346,0.4092495887829302,0.38005490638169864,0.011929740296706398,0.03861430696245708
47,0.11434992364689028,0.5431985239109347,0.9477459810208326,0.13620707327475887,0.7346631500129198,0.07134735616726164,0.4065573574526961,0.37433830979124305,0.017121284260677876,0.03342722818637153
48,0.11675608529239663,0.5413104853549734,0.9495299841417445,0.14051887222597367,0.7385466984384975,0.07172432756757971,0.4043853041964193,0.3681179798296436,0.08257475357989391,0.041414561984452876
49,0.11940503213202358,0.5394329088918258,0.9513734490675622,0.14637506083480228,0.7411170697225954,0.060664953901205916,0.4024395253519908,0.3614685425581595,0.13279380897114731,0.02630110448985541
50,0.120820599276807,0.5391076664025203,0.9518233072036024,0.15508261682358954,0.7417649909855545,0.04453793766079621,0.4016622721827576,0.35455873209224453,0.060283093401664586,0.030712707280776005
51,0.12059033994304483,0.5406626702819615,0.9506338370038948,0.16594872638602567,0.741584782736297,0.04026707951159978,0.40376986760193145,0.3475126690403424,0.16091431953896415,0.045265577251489775
52,0.11761498279450434,0.5456495228459578,0.9462641392120361,0.17736159229301257,0.7379195959592834,0.06976411097548717,0.4089461469677212,0.34042462744707713,0.19312147018892942,0.07633376798536196
53,0.11281547557181662,0.5526482006417304,0.9396101419106748,0.19694785392905073,0.7308216461433479,0.10853249791599326,0.4171122548003565,0.33349175667005565,0.23690056891713243,0.09681738452685162
54,0.10603453221459455,0.5603840406670054,0.9307786805545804,0.22214617712383508,0.7229205891904616,0.15229209767814803,0.4286521027292812,0.32673268638647823,0.3484287249381175,0.11465316263824299
55,0.09714871599744289,0.5711989452240535,0.9193691221883665,0.2496075429250017,0.7162800864685935,0.21563978526109157,0.444332247006031,0.32007980865672103,0.07339466617305213,0.16164613104314624
56,0.08879367625778764,0.5837773170841174,0.9074322393404229,0.2743435077022307,0.7109168598571204,0.24452115666224977,0.46147142437992034,0.313283316096434,0.022066611243116638,0.2022438130774369
57,0.08107337885710297,0.5975654536030982,0.8946871739436988,0.2942857282639124,0.7058419249505804,0.2554580838112901,0.4779190925123925,0.30624137953854785,0.1994655058898403,0.2154584206023893
58,0.07540934133417411,0.6106814671755535,0.883866615188283,0.3115350499659072,0.70162960489787,0.23079344624631332,0.4921613959975196,0.29893803264631896,0.27508358252613474,0.19546770342510908
59,0.07132667224863569,0.621699021358244,0.8753472751030357,0.3271604242782964,0.6974521919981841,0.18915922797740828,0.5027080235947259,0.291491138698798,0.3490569954295687,0.1448514757389764
60,0.06910936833348144,0.6293819121045624,0.8705014146687433,0.34330857063043535,0.6951796557356869,0.14009273392807217,0.5087680299520972,0.283918810339632,0.3842334125749446,0.1029955563774202
61,0.06847960504956489,0.6338408741766484,0.8692536531721006,0.3548944227548692,0.6926315137339409,0.08378442835909417,0.5097242242686796,0.2763994808559256,0.012504051472493607,0.054663139172694046
62,0.06939806273556981,0.6363249475374666,0.8699968193236061,0.36488416978790167,0.6907410791097914,0.08792706894278877,0.5064423791763036,0.2687886242886997,0.20452492170331626,0.05518748180289645
63,0.06898524107856747,0.6416225427810095,0.8685260866995487,0.37981447430872434,0.6879578033882917,0.12654355194911515,0.5036216306408529,0.26084353673199245,0.46186360753519684,0.10000057494975141
64,0.06822639901458946,0.6514777624612749,0.865067384620214,0.4059899397951632,0.6839415270851168,0.2141869576867856,0.5047098947463,0.25204420743688943,0.46694339103220517,0.1309031465053291
65,0.06638188994057533,0.671700471914983,0.8572636718262188,0.4512071790592833,0.6768699381861394,0.31310516663736465,0.508796626436568,0.24200247393954796,0.057432822443674036,0.16251848610223915
66,0.06460774928868186,0.6989256174869857,0.08916378517065857,0.5056718652784626,0.6696322356769013,0.35290510025858074,0.5146108770804465,0.23073001343545635,0.7136349810435952,0.17846543383119218
67,0.06428722050315061,0.7247663884794975,0.09356451206471911,0.5581309306513078,0.66364021894779,0.27171832543017194,0.5176311928034264,0.21863310750255735,0.5192540073617306,0.11014531436806928
68,0.06430123646929807,0.7389424428443303,0.09473555208438077,0.5949071008976795,0.6594700255581804,0.1747469947074908,0.5171096103341027,0.20666543305977503,0.013693361056896055,0.0059636248452086815
69,0.06365789162000621,0.7427830213020035,0.09455222925422428,0.6172396506152833,0.6589002103369679,0.1409051935974577,0.5171538168771596,0.19565423809863933,0.17320395805585917,0.10640698775494888
70,0.063708277202455,0.7342531951027107,0.09060619150182776,0.6270372081158572,0.6602175006179046,0.15935890091962548,0.5155557879784547,0.1866707961951663,0.5028394184313855,0.18492886176491302
71,0.06706177669736164,0.7164676291833398,0.08245954115441435,0.6259804343630953,0.658638659500207,0.24312171451725936,0.5060174033175517,0.18048078676203985,0.2873772620535109,0.24326592044856296
72,0.07135136651771301,0.6942391338917103,0.0741079242203702,0.6184785966747418,0.6541745520631895,0.29630839461568076,0.4899906186843242,0.17740114786916486,0.31889507908379,0.2700767403482342
73,0.07360935555156964,0.6676408864447068,0.06696991123219068,0.606492083567111,0.6487609528773146,0.34781760511275367,0.4753112870906889,0.17728105567178556,0.3254495641309951,0.31664618397958977
74,0.07398585502907225,0.6430195398678559,0.0605878761373038,0.5814782324564407,0.6464333409320205,0.3976855238115092,0.4666048697678401,0.17941395018024786,0.016214845765381715,0.3419646390354663
75,0.07303814891690173,0.6208115089327895,0.0559136653764069,0.5485360295182575,0.6500207915851821,0.39206506176713896,0.4645917293798284,0.18315234058082058,0.011433056618921706,0.3049107009043558
76,0.07340724106823357,0.6036543957137702,0.8894672191620079,0.5104386617523419,0.659226354444182,0.3863498878871271,0.4653337932561854,0.18760234360444256,0.1873115018195435,0.2562704424652032
77,0.07605589960367945,0.5906189914608942,0.9008255944069625,0.47370615285810075,0.672713667028585,0.41194489585850846,0.46284584406676665,0.1919987321247548,0.5407395991196496,0.23481993968641257
78,0.08066484740514039,0.5795344836852698,0.9157059855714788,0.43934860509887746,0.687754735263957,0.49221801567960677,0.454727443462599,0.1958012655677488,0.7780980579734137,0.2701500727143713
79,0.09245428891779471,0.5622353077467193,0.9391698819399935,0.40321482739663006,0.7034652581868887,0.6121483384363253,0.43595277009957706,0.19864728518000263,0.4831514741286149,0.358805202777313
80,0.11556069269053022,0.5329907321065315,0.9712917065374727,0.3648525388211974,0.7155301667050016,0.702198762469278,0.40227202205215884,0.20028701350733633,0.13923811401723923,0.423374738258696
81,0.15256868506849938,0.4931029617637586,0.9906663588238808,0.34129822900518014,0.7284610882211173,0.7418411003125281,0.3552040195418622,0.19998420229217614,0.8365485267644536,0.4008108276417825
82,0.19286776631894592,0.45968368419965383,0.9574702632929625,0.34797612337579154,0.7614574706888871,0.6324908663426732,0.30337353365748115,0.19696319534281945,0.153351815173794,0.25732285540998184
83,0.23221812008000314,0.43514458348766805,0.9286833010315299,0.38106766391116964,0.7943168686912029,0.6273099037334148,0.2579067279750623,0.19113771244560568,0.11867531566468344,0.13073525996956759
84,0.26998378113740523,0.4239822158718309,0.9025957642518585,0.43656944857128294,0.8342452058870707,0.6113402886724,0.2224034393620104,0.18282035521244383,0.06838037734981209,0.08286138429291556
85,0.30467514837196497,0.42514211359767007,0.8804196607525805,0.5000764124676973,0.8741480140439005,0.6009709603630183,0.1970771272066302,0.17240536126285852,0.09919784798928939,0.1331211870847186
86,0.33759963310770197,0.4269955189661437,0.8608375518898588,0.5653951411325422,0.9154780602368151,0.5711581019918868,0.1799891544128021,0.16048658182748882,0.10740700651836202,0.20803273069444364
87,0.37480948487836285,0.423059354675251,0.8414539824609112,0.623402769313811,0.9517130003594733,0.5979947534289511,0.16629626368176617,0.1475742371256257,0.2217483291246884,0.31041511119088305
88,0.42135665881081213,0.40841549830570034,0.8208556385781283,0.6702747781997725,0.9753363195547955,0.6619868169767736,0.15146362104572056,0.13417068349093902,0.07763972367044274,0.40195497424896454
89,0.4693509575980112,0.38553073392224896,0.8021412591969451,0.7054311141745429,0.9878678775436129,0.6981651770774767,0.13646911200415596,0.12081982757371791,0.013315236225678482,0.5260278915881511
90,0.5146115082065947,0.3607527122210206,0.7865372812869769,0.7325848138710989,0.9944190317514748,0.7010829112076387,0.12426947568493582,0.10800018995367149,0.11963114773050168,0.6171307976624588
91,0.5521397976456739,0.3367664621299147,0.7757375362914742,0.7442799805393591,0.9998294684463095,0.6607268432270498,0.11611660350243591,0.09611125904425484,0.136628471609086,0.6930661528813101
92,0.5891276840224414,0.31317725311968764,0.7666714200102225,0.7413257051912523,0.9999999634295912,0.5999965222004315,0.1088028303722343,0.0852707619646642,0.010852581292772124,0.6399710893855824
93,0.6260211199029241,0.284109476972113,0.7583462565563134,0.7206140037952499,0.9918903574091195,0.5848447388846415,0.10038637188000994,0.07551032877330997,0.04201741234536592,0.6078003138884046
94,0.661926849385779,0.2467406716247316,0.7509070186623948,0.6850966264257983,0.9820952899095132,0.6000524341535134,0.09251258560682839,0.06685282502168065,0.10304874488460694,0.5485681841950882
95,0.7056236572745748,0.19435823039328606,0.7426132248220975,0.6390581900223806,0.9784603741647232,0.6482745131336396,0.08411408295673062,0.05928772855416124,0.12368422705078655,0.5253633892871962
96,0.7610437731691019,0.13012746092991134,0.7335730725358295,0.5888526137329677,0.9798128649563592,0.7091089465473969,0.07363828386255822,0.05282811514448331,0.11955982247926267,0.5022561956221223
97,0.8314309331851626,0.061456307143634696,0.7244560497988387,0.5395775050892149,0.985048104414672,0.7890140045161608,0.05997613156859913,0.047499097386408055,0.037513559843079705,0.5168706049852367
98,0.9157603728794953,0.008584416300048086,0.7171040253897102,0.5031148662507837,0.9902279242668737,0.8194075187929732,0.044880309448039966,0.043079372778392876,0.10586704402448813,0.5057599506921766
99,0.9999999984474437,0.0,0.713880999769762,0.49733877683949995,0.9875391093979526,0.8179181109375249,0.03136068222593605,0.03896814456836553,0.0888647087484913,0.457908182667826
100,0.9588773709754531,0.03985774049507493,0.7158699694773049,0.5332646025097139,0.9686322706142727,0.7249655904736807,0.021924460148257365,0.03426027841063062,0.10764573859738705,0.27262064087927707
