Frame,Center of Mass distance,Symmetry,Grounding,Arm fold,Leg fold,Kinetic Energy,Potential energy,Bone length coherence,Torque,Center velocity
1,0.9624447882569974,0.897544007338136,0.6144443522678923,0.5589730252545959,0.0515685122623193,0.024155752707287058,0.35505637849325233,0.9999985372956243,0.09395441746320536,0.036480508536622956
2,0.9650139545550919,0.8969132785945183,0.6108613141636808,0.5500197066898563,0.04968524667185922,0.024155752707287058,0.35505637849325233,0.9967435382842517,0.09395441746320536,0.036480508536622956
3,0.9696841458790468,0.8958527582035251,0.6035978772723832,0.5366747402291145,0.04789729589466109,0.06960615375360849,0.34835102604077967,0.9938325532680354,0.04379088091134787,0.08608118915684769
4,0.9713658578831436,0.8962415890187965,0.5967507687869928,0.5219918356341464,0.04773738447758946,0.060311562203823936,0.3392524463115112,0.9909957481296814,0.01601857836243011,0.0860731281855512
5,0.9740196437112252,0.8960123170556513,0.5899129916670249,0.5074713018907355,0.04969316770237644,0.06882348038140959,0.3301015177976629,0.9879289844022215,0.0874773360930034,0.09285673543183086
6,0.9753793296234399,0.8969686212491854,0.5847924177800661,0.49785054699492165,0.052486032310365645,0.04182045078411674,0.32235492557768747,0.9844610642829411,0.037494793759494334,0.058573633582652995
7,0.9773128331650816,0.8981574057768564,0.580169576862562,0.49053168116551166,0.05279844299496438,0.030509413577843217,0.3169801438587646,0.9806622745519062,0.02621824823370749,0.030170983630709407
8,0.9808968185920337,0.8988773927412594,0.5767697376922112,0.48533950204056303,0.05129711061952931,0.02666489807061622,0.3136272020073494,0.9765043563863418,0.03472157984935666,0.0
9,0.9847082673549914,0.8994496793327111,0.5755990895449835,0.47977098774374344,0.048927736608555185,0.028890394816155174,0.313392773073945,0.9720424045014413,0.013488935991742482,0.03365093123783757
10,0.988524123900264,0.900414523799155,0.5749038770437562,0.4736039174860151,0.04553051322187243,0.040308846277497,0.3156200776046491,0.9671710422832135,0.01574693957541428,0.05146217552768091
11,0.9932952902125043,0.9007607295424365,0.5748547456003993,0.46617904129059223,0.04179240108136348,0.04645221399953669,0.3188744416673509,0.9620255587324335,0.016642437599588115,0.05705858827950325
12,0.998141161514984,0.9010681781904996,0.5753427863228958,0.45856755026215257,0.03793595919619617,0.058375057208120515,0.323486456747706,0.9565192184254726,0.014799928320571015,0.07965739883460764
13,0.9999999963975431,0.9028508862133486,0.5779250225969201,0.45096394563917835,0.03488112636887592,0.0689632714444651,0.3302919909692964,0.9506875573870586,0.014742406773172529,0.10109830319761057
14,0.9977835416468681,0.9069492546392722,0.5808243448545409,0.4432342100714157,0.03297641625591564,0.07831948382177006,0.33863403597963354,0.9445903181267199,0.013256586480525518,0.11891187295623054
15,0.9933417634123944,0.9112036208861779,0.5867438846842339,0.43513963963577956,0.030172610538384187,0.08987703648974439,0.3488352546165583,0.9383225284981241,0.017884996471811927,0.12741508820107328
16,0.9856707574590002,0.9170261813787898,0.5950650653565979,0.42497041610512776,0.02395842720500217,0.10813745116596327,0.36179070411269576,0.9319500251458036,0.01707080458849801,0.14420364221709472
17,0.9725544619815442,0.9244974996657008,0.6060394986337566,0.41486362664802373,0.013333038652640744,0.1211942807145194,0.37674403940910095,0.9254698438808345,0.032988935686052,0.1491311328021891
18,0.955931557586415,0.9334521730464213,0.6213834082131223,0.410707546945587,0.0009249452601894356,0.1369764517790164,0.3944538546231187,0.9189617793767753,0.024292528519810033,0.1304722216946787
19,0.9386102642634973,0.9424152039019028,0.6369061088161632,0.40975571501073443,0.0,0.13254517406004993,0.4135765050476067,0.9125459481296356,0.06001126956336334,0.11943598702295208
20,0.9238537437757108,0.9498796046807231,0.6490748022038838,0.41030146081799285,0.012481657707079968,0.1080140583797456,0.4305112840402309,0.9063236505009884,0.022324907265461484,0.10597851357707155
21,0.9125358531187036,0.9548817135093401,0.6585031416504491,0.4098119492971415,0.02075940759343674,0.09744010703415307,0.44461720481215816,0.9002704182350221,0.014414939148024556,0.12044621425729765
22,0.9037427003721835,0.9584423148958302,0.6657782427485248,0.4116127369628018,0.025804460606177443,0.10261843718217911,0.4572842038022778,0.8942616456959086,0.013550393665543947,0.1447234429174963
23,0.8954593780286791,0.9615649576704475,0.6712926801657954,0.41427141100097475,0.029964825384208613,0.10526604988795493,0.4687458426719465,0.8882590284285826,0.038950125904957035,0.14884984557096587
24,0.8860431337721615,0.9648337022452592,0.6787715504452653,0.4231582713684217,0.03430838311759784,0.12847805812489707,0.4803332354524064,0.8820914260862198,0.0641162307800808,0.16693536312671844
25,0.8739976205004867,0.9685234170259825,0.6881111903658119,0.43681184212929586,0.03987294562003447,0.15862572183577037,0.49380627012067557,0.8757430898413919,0.01522134150599818,0.18690814953698226
26,0.8614973594931324,0.9727145984081479,0.6957813149705638,0.45367233619947267,0.04520449655400079,0.16271529614679037,0.5072260419422894,0.8692598129308541,0.01771118875691974,0.18620631592907957
27,0.8479559708582702,0.97624550868639,0.7042444767499637,0.46693013130148847,0.050992268685380926,0.1731768584585936,0.5203912208791146,0.8626511136964191,0.08475473879720909,0.19333080482305431
28,0.837217958247307,0.977901263068002,0.710906723668704,0.47704032326883455,0.05527163571301063,0.14593118854082537,0.5331058390064546,0.8559876785343176,0.1228386246827322,0.16935883676348396
29,0.8279439041958471,0.9788860985059572,0.7153746690756455,0.48200941712977996,0.060083095627583696,0.11459847321278602,0.5434723368405331,0.8492602094468631,0.13574614240323085,0.14943060834889196
30,0.8220639525489454,0.9797608180939078,0.7180708665831859,0.48685722355038813,0.06297724921059401,0.0668470932802738,0.5508150941880292,0.8425554043285359,0.08482508286295848,0.09192601496960572
31,0.8190647481476258,0.9797307698804459,0.720603778084459,0.4908361198231646,0.06428557544003823,0.0383425536543401,0.556083320126923,0.8359970811932961,0.06346053097887201,0.06951625584231311
32,0.8182006175711177,0.9792365894068192,0.7244745676588669,0.49018636068037685,0.0647011969796796,0.022901801101597084,0.5612061478930813,0.829653713989392,0.03349437167871223,0.04827162664129198
33,0.8158731908205283,0.9787735987431524,0.7289826998025312,0.48362992333310056,0.06648454321166633,0.017344574069436323,0.5662511258607161,0.8236159283749134,0.019830714757680314,0.03125452620153553
34,0.8127420291467997,0.9776207770040324,0.7291368993272749,0.4668026219593246,0.0685922321855969,0.02362384185863678,0.5681076716654648,0.8180736325338688,0.025531265827928494,0.013285266747178223
35,0.8101935275034254,0.9736268575976135,0.7318826536028392,0.4292027857484469,0.0698036698079438,0.06242977256306225,0.5681758732109983,0.8132837042728389,0.11917056805332185,0.040430590943094785
36,0.8054521956330795,0.9647522970684094,0.735007887701793,0.3638135831052528,0.07065183639601366,0.11624686680019986,0.5701023158484327,0.8094093992915887,0.03699019570794218,0.06621443453329921
37,0.8016576473019197,0.9532142449015367,0.7379634688131005,0.28638757706518586,0.07058713508484403,0.1509291810075704,0.5706947563671659,0.8066591316651353,0.016809055173954077,0.06624627368287596
38,0.7975785686505107,0.9397021161306434,0.7404527523144357,0.22358868856425093,0.07099077096223813,0.16144399495506948,0.5692121071337727,0.8048619039613377,0.03957590588531812,0.09896272451400752
39,0.8000932850693501,0.9221522828960749,0.7366697729508335,0.20578019135518932,0.0667373750663189,0.15074748592433349,0.5662202733677429,0.8036985959957427,0.030254547776759455,0.1351985140679146
40,0.802481613890778,0.9065769209930691,0.7322297443084018,0.17703488198610487,0.06327176833849928,0.13342051173879685,0.5616774641605641,0.8029278460909981,0.06985043735183996,0.13818887283804132
41,0.802667863955588,0.8963180191995288,0.7316143124038116,0.14475919980666824,0.06114903010719124,0.11150879907628665,0.5602943866340236,0.8022851564090604,0.09653402732789347,0.16895608987712535
42,0.8036239651601689,0.8908117390145578,0.7335115697458704,0.12766975773619416,0.0584169444871481,0.0909743164590408,0.5646022048542614,0.8016973745495818,0.03419353947240532,0.15817762410295083
43,0.8024028734040618,0.890385537086939,0.7391535787860023,0.12008833599844286,0.05779076954956704,0.09408059814457861,0.573200292573526,0.8010697966102495,0.01656235012494284,0.15213812728057755
44,0.7962428061643432,0.8966633905532634,0.7497922504600933,0.11951567103248324,0.06380382435891863,0.09663822710613412,0.5856057031337409,0.8003289427761636,0.12798951281542043,0.10725229130781598
45,0.7835581099813593,0.9095535308872965,0.7663198256992239,0.13057504593552216,0.07724668349524176,0.15355804269674148,0.602009041176533,0.7992580281765335,0.09904878626745742,0.08332565613897676
46,0.7638371900113239,0.9292551100943527,0.785812932069145,0.14458763231160657,0.09829600683825579,0.2140586637497469,0.6210595430377738,0.7977343865619071,0.024381663639121167,0.08617275747661994
47,0.7431181727876037,0.9534789403580002,0.8006067421905042,0.17420657121457564,0.1198871898354432,0.24442354148108192,0.6398317473012218,0.795645466344319,0.04156759777657769,0.11214202205531432
48,0.7263953065398788,0.9767154833723735,0.809270360774346,0.2978378935218981,0.13504435919975377,0.2800467921332742,0.6575969493181714,0.7927732656536549,0.08604059127131158,0.2035903630579716
49,0.710945110130348,0.9929901816500596,0.8146738013421432,0.40589466415905634,0.1450927438844061,0.30698501834241226,0.6751647834173264,0.789187534590942,0.20170070844518692,0.3078078674926058
50,0.6947967529277793,0.9999999940936654,0.8248931415604054,0.4799343597361132,0.15277481510879165,0.3486571069296991,0.695702764584833,0.78494535463232,0.32644301082348454,0.38188221905406367
51,0.6746373340409999,0.9977333950318241,0.8449169242285384,0.5081230879968786,0.16219035480809352,0.43825193725644934,0.7255727851365854,0.7800398020039946,0.1266746173828563,0.4783848899381768
52,0.6513596138667335,0.994142300359691,0.8612994895334581,0.5184757063274323,0.17185776323294732,0.4565786951141689,0.7590722172771203,0.7746969146396467,0.0830365213527989,0.48029800216793944
53,0.6248460301417865,0.9928967747045053,0.8776650225187571,0.5136144153660727,0.18474114190336535,0.47651971617988603,0.789100128528189,0.7692066336477736,0.04035889945834022,0.48990165992545626
54,0.5988847670101298,0.9883091689091722,0.8934975270315492,0.4760129020658418,0.19675503495344784,0.4841785298820751,0.816907583615486,0.7635319141537731,0.23090054643988298,0.4876743190908203
55,0.5720802027428716,0.9799741588424777,0.8987403108728396,0.3757197760314887,0.20925278415455742,0.3999155192671949,0.8358258111053406,0.7578103059531688,0.18875811022291653,0.3823512662730426
56,0.54584493663233,0.9672159064210003,0.8937330731210223,0.23613799872887944,0.2208093149465262,0.3440832530745471,0.8411087272246,0.7521177604938536,0.11143613215021404,0.30550865039699415
57,0.5209764564479192,0.9538070514774467,0.8905972703485237,0.1209178989854874,0.2330258902095477,0.3187146105515836,0.8407578043953539,0.7463372381420761,0.10701503600809825,0.2988421755290188
58,0.5012527598082519,0.9430360605130279,0.8905203896927985,0.0586956201489637,0.24175587051477762,0.2862933393690783,0.8430015940485885,0.7404293512698255,0.03498237724162648,0.2785761579756458
59,0.4823737295131557,0.9338592861483002,0.8985742151460449,0.03457449729681312,0.2531145416474778,0.3093960491755226,0.8531664668264146,0.7342686637955297,0.0634972971800993,0.31542048565521386
60,0.46654143741951143,0.9318285548322904,0.9123122341132183,0.07858469790779701,0.2649100365657666,0.3206357973197035,0.8717459449561945,0.7277870341931504,0.09229265813835905,0.3023148012654927
61,0.45331162225154353,0.9365343429243824,0.9296261573299601,0.18169219494104846,0.2775285467202277,0.3426317972029142,0.8945936806175661,0.7209644094054244,0.1628077858156897,0.3095243981348925
62,0.44269269012901885,0.9452653616643322,0.9462511705837232,0.3290495989018701,0.28999113907988283,0.35462573231707906,0.9181614276187767,0.7138355686643738,0.17985775385191866,0.3077163362421367
63,0.43326428156468705,0.9555370833916232,0.9591152698020651,0.48435158675249174,0.30231258372280545,0.3304303688003994,0.9374391822534991,0.7065077814995528,0.10129624468780855,0.2841479692788623
64,0.4247538066792037,0.9610703651532846,0.9673930673583904,0.5897155156950183,0.31248661342637263,0.2661874687222938,0.9507266974046841,0.6990864021685135,0.10334059338662138,0.2461526229774975
65,0.41949219637699087,0.96223538787616,0.9760505187345598,0.6318350036532888,0.3210569049150104,0.22647306712926935,0.9619434646039161,0.6916653094820204,0.20524653446526803,0.2733904177029872
66,0.4153147982665868,0.9642284705087018,0.9745956183791691,0.6099449590586292,0.325602574310831,0.18288393589160198,0.9683350969010589,0.6844861260147146,0.41635475743764155,0.26257279571021785
67,0.41649777923009745,0.9655570533648359,0.9677041343535167,0.5428807084922823,0.32494704866574925,0.2694550511750503,0.966582575761267,0.6777832688156451,0.18204458034334953,0.3112588733589881
68,0.4212441249223149,0.9627539979109543,0.962004725816273,0.42388379730850007,0.3236741969432554,0.3344531768980762,0.9630317550291144,0.6716301347965838,0.03516818099966309,0.32990186201798977
69,0.42771836481264863,0.954861766891242,0.9598397394849345,0.2651234627272391,0.32360851021314285,0.34030671941737384,0.9616030079379813,0.665974613070406,0.029017736687679933,0.3377537479567885
70,0.43537453499642903,0.9477220648197116,0.9571948387099656,0.1101035765884607,0.3245756960447958,0.3448172919334736,0.9596470026840591,0.6608399077647223,0.022296088913148517,0.2782048130272979
71,0.43886525118361297,0.9443220818358354,0.9514678549568082,0.05566523778346221,0.3311840470105431,0.34553813535827493,0.9548240058351499,0.6561315094700515,0.3626155565618918,0.2871616963099647
72,0.4354886620150121,0.9440819989287804,0.9468157310804095,0.027947147504118277,0.34305146444435203,0.2510235160161481,0.9505620136638421,0.651689893260163,0.3297568665972531,0.1912129189738083
73,0.42893918285636834,0.945310623967359,0.9415127895759844,0.01261286219859692,0.3531588501104704,0.18502295239912048,0.9480753023807985,0.6473834012635974,0.14784178251997426,0.1406508440279231
74,0.42224643636951686,0.9499936895230163,0.9395706411486129,0.016294507654750195,0.3616362180314495,0.1994962169655437,0.9484326524629753,0.6431523889005095,0.06579844867869802,0.17700089727329424
75,0.4141991559330346,0.9559208790476547,0.9416833576560963,0.10328221571316466,0.3705723475879866,0.25977389880145035,0.9534395675439281,0.6390006004356384,0.03641677101345375,0.2431197266294768
76,0.40509957305393435,0.9609106416740458,0.944779701899257,0.22343411177636477,0.37877134592782985,0.32250957844738326,0.9595887583053793,0.6349054466246231,0.05946311699134827,0.29333985616597447
77,0.39557938167079526,0.9631669767194038,0.947312097855479,0.33147854143471067,0.3863215426242197,0.29967488508568324,0.963733248799575,0.6308938748847013,0.09754767569300495,0.2280249490031865
78,0.38614020430378704,0.9589360084048595,0.9455651605616554,0.3810433637494473,0.39248741933586134,0.25201811524697376,0.9634898700775364,0.6269821306537988,0.09524469317279093,0.1375743984251328
79,0.3809033158387724,0.9462596167224276,0.9468511748026631,0.3526348972177649,0.3960341754148895,0.20352321645603255,0.9616937965493983,0.6231114515556183,0.5839408126023206,0.0973818462155005
80,0.3795431068262862,0.9234996366341812,0.9592193712364814,0.24916615431693503,0.39697367960914187,0.28113929241857305,0.9675070999483805,0.6191067299233873,0.03243860761592349,0.16506191726331731
81,0.3823825387405382,0.8979988651651498,0.9770538982900019,0.13432002256176565,0.39592855058617943,0.32682042416057167,0.9830036041163079,0.6149047133348952,0.32901570360861565,0.23255101623376792
82,0.3838601804531771,0.8788991222188361,0.9859787951056728,0.06079798520982725,0.3936023155509934,0.3126807510406134,0.9980018905728011,0.6105438330664632,0.02570294140541013,0.3596045692527608
83,0.3748502094370988,0.8743202541325814,0.9770731474533423,0.052875742209573785,0.3971568286471863,0.2835742289646789,0.9999999803188367,0.6062160662613078,0.289022777381641,0.3698377014214335
84,0.36139230986904947,0.8764403230026843,0.9641933241109455,0.08386587356447561,0.40349318105160226,0.3161488241751171,0.9910407938279115,0.6019421362752126,0.15151870764223488,0.37245119642436186
85,0.34419800878115203,0.8751010007094491,0.9543182197675266,0.10888546176568221,0.41590630490108743,0.2695977310528741,0.9805038445987617,0.5976410932290318,0.3833886981482998,0.3074868001986748
86,0.33034205799076855,0.8655220329099196,0.9515243264728286,0.09668414927364133,0.4304306906584443,0.19360029942888143,0.9726133455539399,0.59332520229625,0.11367248424549298,0.23192814230131725
87,0.3211814990682138,0.8558036371535408,0.9475103700377672,0.08498780099998192,0.44009568735714166,0.16921448099984543,0.9673608034949011,0.5889344115190583,0.09485984902801527,0.20333221907626933
88,0.3130593709121445,0.8475915382904983,0.9373211440947948,0.08530224386771577,0.44459698376159984,0.17480841657183124,0.9614504904562741,0.5844963206040883,0.19891395470770915,0.20493344412014697
89,0.3093498129875972,0.8403175257070216,0.9290824377419593,0.0885845049943777,0.44372496816540175,0.12348120514089456,0.9547036232147628,0.5801269913229239,0.026526257071979597,0.15190078507039215
90,0.305064782948985,0.8334150140730262,0.9196802944282961,0.09664958014166487,0.4436376043425344,0.13287280060930615,0.9477767664993,0.5757805008698513,0.20886289011665082,0.14966864361354096
91,0.3014237237913924,0.8278138048924333,0.915066997538548,0.09741476486432638,0.4455296014245911,0.08848653216195573,0.9420425068433629,0.5714538523053448,0.05498254406248871,0.11649566762633044
92,0.2977791611634518,0.8230873563488449,0.9108879055793494,0.09792876200808197,0.44814331704009785,0.07326200599199036,0.9380774708995141,0.5671583024547927,0.07598803471961652,0.10043401835690535
93,0.2944528978608165,0.8193441999294371,0.906377737032734,0.09916614803896816,0.45019017552360757,0.052610033977003354,0.9338577395456357,0.5629041445903498,0.12502643560912843,0.06910452786187866
94,0.2925953802310185,0.817141608921083,0.9040645057219904,0.10010682316780661,0.4510563039611074,0.02677435033789606,0.9306399815575033,0.558696039916205,0.07081728853116183,0.04751153720969756
95,0.29190110092297294,0.8165654568898343,0.902601208426582,0.09395867573376752,0.45126670848587064,0.007326201859258666,0.9290589906850336,0.5545329972647961,0.021249067280096894,0.03276256524774579
96,0.2916049229179632,0.8157488023778507,0.9019123113522292,0.060409946022883396,0.4520803293003499,0.030812683205173465,0.9285657845352586,0.5504314549536216,0.04414499527547083,0.03856558010231641
97,0.29191538443046994,0.8146619870041509,0.9025851685311838,0.0,0.4519457540322843,0.07746754786598603,0.9298034765760317,0.5464083978886313,0.050833540502131944,0.036603874937555
98,0.29069887503221997,0.8108598272393946,0.9013688108708748,0.02790269629475348,0.452750788864314,0.10448243821400657,0.9319001989421297,0.542470068186412,0.02063176007544481,0.03338788326081165
99,0.29000641522203696,0.8055930865292056,0.9011499877739924,0.08509107150476643,0.45285525095543394,0.11961938722350353,0.935484853306248,0.5386207425631045,0.14473490112418277,0.062377967832242365
100,0.2896096834726309,0.8050113974882582,0.9009698627774981,0.1259652733793287,0.45383554998794134,0.11487722508521546,0.9406893246485221,0.5348745986087463,0.015896932637618637,0.09190137403924906
