Frame,Center of Mass distance,Symmetry,Grounding,Arm fold,Leg fold,Kinetic Energy,Potential energy,Bone length coherence,Torque,Center velocity
1,0.9999999941864733,0.9873299474144922,0.3017910192591455,0.4698176165988404,0.0,0.2928233517483338,0.7049937837419484,0.9999980587619641,0.6566607597350318,0.4207396928935587
2,0.9918428933098442,0.9875767113858592,0.3181450186643278,0.4641347531223029,0.00289789944715668,0.2928233517483338,0.7049937837419484,0.9830595146455041,0.6566607597350318,0.4207396928935587
3,0.9788983873730709,0.9865549453072933,0.34012502848056125,0.47027893358569056,0.005816349700396902,0.4107753456838434,0.7345292501427904,0.9613681088144366,0.7226985780199272,0.5539756936138606
4,0.9525189843334805,0.9868540567093815,0.3708092284430963,0.4902067140497559,0.017908725934812214,0.5529371440497445,0.7727646092754579,0.9344093955149697,0.7833938925792805,0.690242340642858
5,0.913626098940044,0.9858853486666901,0.40125083307640713,0.5158411461010179,0.034603792540737616,0.6651085806557467,0.8154327774671449,0.903630350472405,0.3357044443131317,0.7721231689189845
6,0.8656369730434782,0.9880820724946919,0.4226830255372401,0.5344229129466362,0.06059219720136745,0.5911579081945709,0.8511369034809676,0.8737721035439028,0.4843453240725055,0.6543635599508845
7,0.817536525066392,0.9909089446844668,0.43084820920362427,0.5366851909343718,0.08538144469608545,0.4907115059705478,0.8731942205301819,0.8472572654904679,0.789712705218044,0.522602264065466
8,0.7872674132852111,0.9901131127034711,0.43029738242486065,0.5249092315902638,0.09636030857582586,0.3509992625730824,0.8835883494465778,0.8244786777717562,0.882501685574944,0.38429866539531915
9,0.7764687317887088,0.9867987741418451,0.43169277445822474,0.5047084661272795,0.09673099904833347,0.21377308806389075,0.8893411337723762,0.8052647267879222,0.5703760860538122,0.25587138079529026
10,0.7814359790058963,0.9809609048051412,0.44265066037903295,0.4811532285915805,0.09178234416306494,0.15829818514233515,0.8997063943258762,0.7887018354341343,0.06450449466404451,0.1970521960845972
11,0.7969391468922763,0.9756118397226575,0.4577617849858744,0.45813191377115314,0.08421925258706783,0.14118633240867162,0.91498356271081,0.775037160694138,0.053089025371961855,0.09628969376904783
12,0.8221532465756528,0.9715361830617512,0.47006127269441333,0.45064393359058513,0.07171795325913755,0.1658615679981283,0.9283137312768269,0.7638477401873696,0.3999280702102733,0.08724317330234299
13,0.8480099712934782,0.9725681516062954,0.47884125683054013,0.472966030103874,0.061894340910872224,0.21558084504606212,0.9391961018281179,0.754746455111465,0.4159017480325936,0.15758288175895735
14,0.8595189136375141,0.9772603739145914,0.48002622367366043,0.5219887089813315,0.058512577530984634,0.15760101830444412,0.9450807468256314,0.7468766553551665,0.2984985668571818,0.13203321173626056
15,0.8613971710574267,0.9805600101016041,0.4766698981972214,0.5598608918455382,0.05849439786637931,0.11484112063100044,0.9421720170831549,0.7403230743010999,0.21122128466639434,0.12295335078369445
16,0.8649637010378146,0.9807299861408907,0.4752650473671968,0.5590086286705871,0.05694946571763741,0.07781551120902919,0.9377371037024234,0.7349855885332043,0.3866237597109792,0.09925755286524536
17,0.8657845071906798,0.9797840585502765,0.4760082982103375,0.535055923872387,0.05693748910049284,0.0317300174756108,0.9375463474661803,0.7303761174473925,0.11968786051908181,0.022075600346551236
18,0.8614890220588121,0.9795245135201714,0.47901146401875905,0.5188619761835787,0.060427291577620015,0.06275606373428044,0.9398594409855962,0.726065679818932,0.09409183777051083,0.06753713277702138
19,0.8540224965983811,0.9808941146555025,0.4797771747084994,0.5261288596686531,0.06410316791029022,0.07316260977364841,0.941232712123578,0.722109406195157,0.028842783701448577,0.06640737631542283
20,0.848552379855167,0.9813096603442558,0.4829046007158634,0.5419908290364381,0.06597981636354734,0.08963199133480394,0.9422176670235368,0.7183000209936764,0.05650699864599498,0.08728102900116243
21,0.8466905367701579,0.9801503657288189,0.4872612781262877,0.54275138405818,0.06601399219113703,0.08397717292104011,0.9449661525194671,0.7145114593873562,0.19931264897958922,0.08253132869759724
22,0.845822187213956,0.9780892813955745,0.4902800324067182,0.5063190625296405,0.06719001952227754,0.06910654078430305,0.9470696864352364,0.7109399928934568,0.13892794807865833,0.056102852270134014
23,0.8464335296776,0.9729869487561961,0.4899294516354919,0.41934635136748477,0.06711294151594221,0.10966137635713898,0.9461019611676572,0.7077029845275676,0.028239137428676758,0.009152613556873817
24,0.846908307406287,0.9636424769997384,0.48720955099808744,0.2906689958106402,0.06603513094800877,0.15289917171018416,0.9415487418393026,0.7046233572680352,0.04501718662706777,0.03617431289180582
25,0.8483003155043269,0.9520178640661897,0.48382714243162306,0.15866113666746706,0.06410300479224089,0.15450270803443977,0.9358075666958042,0.7015695524526465,0.0604005072947054,0.07453922868180607
26,0.8482289805769861,0.9414890467280194,0.48139231432430923,0.051134737470549155,0.06266703584885497,0.12505772087416311,0.9306568383321383,0.6986313312442429,0.09297613203452802,0.06841983975229038
27,0.8456119628692558,0.9331854985462613,0.4818120649438509,0.0,0.06320539914566285,0.09424848151635604,0.9270872940631492,0.6957827823298877,0.08438436304184838,0.06407619013314274
28,0.8403337321159824,0.9278793077377785,0.4855689847387083,0.05629462753692278,0.06560212095878695,0.09164979624117402,0.9264441491970825,0.6930460931279594,0.13467185185872804,0.0896920093826004
29,0.8355934321496671,0.9257128893917511,0.48935955380839136,0.08802614653404622,0.06851103551439906,0.06655234965446456,0.9269599216519838,0.690599520283593,0.15101757525869328,0.05442813902818776
30,0.8343947121436068,0.9243842449151622,0.4928945947011406,0.10259901940509081,0.06921005996919524,0.041687107880559716,0.92732737184603,0.6884184039765087,0.12397201488955467,0.02437272592935927
31,0.8336117793551777,0.9237194821650596,0.4953266435676151,0.10780264425411697,0.07004828521163876,0.029978325301166682,0.9283379116584072,0.6863759889506171,0.0805348464607529,0.029124899416508303
32,0.8323831802308671,0.9232368076239338,0.49616247041160066,0.10880098780812399,0.07089338988530153,0.02390661863407183,0.929779466351442,0.6843620724529984,0.029204080344158303,0.03404012878429955
33,0.8313636315690027,0.9227587359427024,0.49700861284275116,0.10847875922054907,0.07113557256966402,0.028906356524666207,0.9312225899110966,0.6823515607445123,0.041550285730263765,0.038286523479534325
34,0.8312152137135385,0.9221748877104589,0.49793049811205486,0.10914447703181575,0.07063175150431765,0.03211885970978962,0.9330272067286861,0.680304184776757,0.05842602489156351,0.046533700219253564
35,0.8300566632490127,0.9223565963672176,0.4992582548472604,0.10896021021729707,0.07147704556452295,0.032541372310288516,0.9352688357217184,0.678261134427389,0.0701930305979927,0.04768036784584289
36,0.8290184739264732,0.9227314349623618,0.4995765461256052,0.10923182860608055,0.07196138791147506,0.018868822796827486,0.936619980994631,0.676279703386756,0.05909678688312288,0.027159630811854955
37,0.8283663377846597,0.9227657564382097,0.5003218856620149,0.10503367243167745,0.07240756872058624,0.018445878177423977,0.937464144178453,0.6743461626887013,0.07030618779983726,0.0262016542394839
38,0.8282057604732702,0.9231661948229883,0.5011100476730763,0.10067482499985432,0.07297627359225879,0.01178497900683168,0.9386959816697744,0.6724916162262753,0.04487831386637529,0.016368134246206895
39,0.8290213388474061,0.9235164282680195,0.5023624622582249,0.09599518874180865,0.073065749124605,0.008979722368105974,0.9401883889650084,0.6707238076076847,0.04751322667116176,0.008256860404178057
40,0.8302785428380188,0.9238482368967234,0.5027287593806399,0.09427595359765725,0.07265199414676696,0.007727646848146848,0.9411223306819675,0.669059949099916,0.043171124179563855,0.011631616075604161
41,0.8307702864932331,0.9243077003015117,0.5021089630976093,0.09444544522671576,0.07248832132942044,0.010179611503086224,0.9408018715996579,0.6674786922366411,0.04672459718790468,0.016593956575155305
42,0.8319728355637318,0.924464340853205,0.5014266083198554,0.09490274900118387,0.07171091114067002,0.011397044760415836,0.9398937424443818,0.6659912188066538,0.06247466364978367,0.018387628718620076
43,0.8321555698356293,0.9245555251213716,0.5011141270189097,0.09543011513050104,0.07154562443629221,0.007383755959359608,0.9391986942716778,0.6645678657122468,0.04900664803960865,0.012528541683395324
44,0.8321846728706125,0.9249846969380184,0.5004539550161993,0.09514658267055713,0.07147863728466307,0.007846756260510304,0.938509062861531,0.6632428504968464,0.059583747389330075,0.013341370366268463
45,0.8323107711373817,0.9249854346645239,0.5001237112971892,0.09465720166664751,0.07138601615648152,0.0021478927196655452,0.937904923952557,0.6619677234687477,0.04078632941017025,0.006838511411663263
46,0.8325070843209587,0.9251271999632875,0.49943036317261796,0.09619967940541924,0.07105313806521642,0.005862494743007211,0.9373658655522377,0.6607664579767415,0.03850247324640244,0.009772111135935976
47,0.8328095147899305,0.9252715818081044,0.49868931185136856,0.0966692690727764,0.0708554939391335,0.005812463961278038,0.9365718918912987,0.6596245579511713,0.05943906335812736,0.007478306099384664
48,0.8335257976510568,0.9252376778362208,0.4985269948085389,0.0963043804773754,0.07037781355476719,0.002562397727718844,0.9361959877207474,0.6585250432632868,0.03421919339072585,0.004584719011438122
49,0.833964104397738,0.9252587337548777,0.49821258679461855,0.09497027477318375,0.07029139981430674,0.006976219912138679,0.9360176064789826,0.6574743928943313,0.06237911137723753,0.012917354255171393
50,0.8341424102834054,0.9251502955362662,0.4977062278692859,0.09535648149624631,0.07001706334208044,0.0034992657492139076,0.9355636344346915,0.6564839223047043,0.040545273217311904,0.0059259490411567375
51,0.835049517203015,0.92514295817648,0.49753335226885004,0.09335868848825775,0.06950870397263827,0.00420890055819721,0.9353383516449141,0.6555348182221764,0.04784767085376375,0.004636971357888898
52,0.8350606436522731,0.9249144827292415,0.49773507741223283,0.09240880200173424,0.06974735442629254,0.0033679459202866804,0.9356902553432694,0.6546066666326523,0.03803021965881511,0.0
53,0.8359515606743859,0.9247879003035946,0.49817612844047787,0.09186075411776584,0.0694394842117733,0.0058549909509526,0.9363837954289991,0.6537002495155076,0.05633763018746981,0.0038845362141027065
54,0.8366660732559965,0.9247474056488868,0.4976492832705527,0.09138603851459208,0.06882274028426831,0.004007935885433552,0.9368781587116733,0.6528195776797003,0.03954281821186702,0.0024315736382647373
55,0.83611989764488,0.9249380631241544,0.4970951785221488,0.09092777511127366,0.06908111879029288,0.005745032502878232,0.9369816250499773,0.6519633287025178,0.0646947676539775,0.009939832293405842
56,0.8364603291495498,0.9250328356011118,0.4970688183605674,0.09005234794873422,0.06884051839444524,0.005937173160953532,0.9372760224220317,0.6511156447345986,0.04609702243042819,0.012171192429586836
57,0.8367328652431592,0.9250174538797573,0.49705095363915924,0.08924741926028668,0.06872556076749747,0.005537649612132287,0.937638147716061,0.6502786156830987,0.04882776357659361,0.010241721471741475
58,0.8364068670717358,0.9251774634034663,0.4968403110543102,0.08788517632628731,0.06889111999642865,0.003233152943897255,0.9379329257846138,0.6494570613385652,0.0357531308885517,0.009242264138078368
59,0.8361510293242086,0.9251899435771072,0.49754335242070485,0.08705573926084632,0.06923294593041276,0.008022308581644697,0.9385365524041259,0.6486403162862194,0.04072482110167149,0.012655490069863202
60,0.8367807959565643,0.9255207709602963,0.4974765355492966,0.08485164836542165,0.06907571622598535,0.005835451695794939,0.9390995866992996,0.6478397807487761,0.032635974261151175,0.008314360972541856
61,0.8379806000032807,0.9256669713367415,0.4979427659880302,0.08240287781384874,0.06885494547558738,0.01003154018653228,0.9399663207069793,0.6470428417939242,0.044629444592610104,0.010016662489816641
62,0.8401626440382405,0.9264518569729241,0.49672561195537207,0.0757299421415514,0.06772215500110293,0.02691264387928003,0.9406514488647062,0.6462739512579543,0.08800990887703211,0.023382581661218146
63,0.84067840829299,0.9288527955926711,0.49635284840910215,0.05397693682535723,0.06811866869207736,0.02542511005642349,0.9408157996885287,0.6455311101806182,0.033738557608965776,0.020685418310961726
64,0.8406071743239703,0.9334434381557016,0.49808060695585993,0.05667437929742233,0.06918229407132975,0.05542419186804634,0.9422473098546685,0.6448176017207256,0.07767066056428275,0.04058518124493759
65,0.8394157464656036,0.9401586778472947,0.5005506487266316,0.13897651981021752,0.07035220545602551,0.09483035167326888,0.9452168312837407,0.6441651384249227,0.028487495399659078,0.060682931107000335
66,0.8377105478285258,0.9488062556347239,0.5015346534388082,0.25073616160336987,0.07129705638444807,0.12797253902238775,0.9489872258325569,0.6435524411094213,0.04917857470752478,0.07179989480751688
67,0.8359552184493884,0.9566757716202605,0.5028192211123801,0.37451425200954497,0.0712612935621139,0.1637321015931848,0.9544835100182445,0.642901205963604,0.10132784673550738,0.06237777192810668
68,0.8352732905724212,0.9622687721271052,0.5035638743638585,0.48180415963124834,0.07055710741810221,0.16663690387426347,0.9621254938676262,0.6421506691408695,0.18688425320740631,0.055231558600682115
69,0.8359230118307863,0.9661765872378447,0.5021346796006527,0.5464363876735574,0.06999781320584071,0.12996175069773414,0.9697268408657195,0.6412358021915988,0.1992449538673547,0.038797044563205714
70,0.8395658564324827,0.9699905466797556,0.496158506157029,0.5684385603864024,0.06782069380597715,0.10444252947941643,0.973417331757746,0.6402010773823639,0.07509024380339012,0.03814321609927614
71,0.8440615352616054,0.9721027267111046,0.49142312734375604,0.575922227264799,0.06551044244902966,0.08289166902151213,0.9740474828255807,0.6390523666432945,0.2862591996482758,0.05099192360736511
72,0.8466638721673322,0.9735247062367753,0.48890075741263933,0.5851291148415447,0.06340335004155767,0.04452545571601062,0.9746272007030424,0.6378302115338995,0.14056609452642602,0.02345174091959028
73,0.8459727768502939,0.9746436980610955,0.48996579489837083,0.5929297503809294,0.06388070450343071,0.028023453912085043,0.9757611124005512,0.6365892169069384,0.06659842436158626,0.0344843680028757
74,0.8426232146463623,0.9758806521545244,0.4918009378549859,0.5995175044120316,0.06593900503804734,0.03966987005975704,0.97695271498662,0.635376369945513,0.08441583790871653,0.03145675040485004
75,0.8395705192337382,0.9767367598177442,0.49366590649895326,0.6037883081025991,0.06822291489068524,0.030411533345705545,0.9775358063086677,0.634204820587425,0.13141611107564422,0.01968674017037105
76,0.8395387243851022,0.9767775212173331,0.49471134863171085,0.6066000507872988,0.06823056719214839,0.012351167538261591,0.978142178850157,0.6330633294993427,0.04584953009094257,0.010500030216017345
77,0.8397825167620775,0.9766088445390135,0.4947265662540986,0.6062552082225499,0.06760824621421466,0.014664429217377201,0.978296855077941,0.6319772488020615,0.08200591968948816,0.018028227445976527
78,0.8398699725919089,0.9768596831401172,0.4945825060954948,0.605113026900357,0.0676636925956136,0.01633057447124553,0.9775582906801109,0.6309637151786877,0.03897398905182447,0.02372311439522951
79,0.8415759979386596,0.9769402396498997,0.49510184902020915,0.6042477955596876,0.0671439090366286,0.02202195411449099,0.9767717548428584,0.6300137888203693,0.08633616032357957,0.0302031267525556
80,0.8424443808363743,0.9769309877455002,0.4951739600896583,0.604160895152163,0.0668384346156287,0.01573881387383128,0.9762489693531673,0.6291188275654461,0.0649236243806729,0.025430337489502318
81,0.842696152551339,0.9768159065614751,0.4952752915516753,0.6052002790598067,0.0664962666615617,0.006964048563020109,0.9758669649208964,0.6282591663195491,0.05115668157379827,0.00948488769625144
82,0.8425059351332335,0.9767091821974013,0.4950294438286468,0.6060376169362125,0.06634726497120387,0.006382839090614053,0.9754594275482633,0.6274236109572741,0.04250118586076597,0.010830067961428111
83,0.8425442990263882,0.9765939023061747,0.4948239675626587,0.6064578729026463,0.06613630604517802,0.008347884194967362,0.9748602595001882,0.6266173138171371,0.06683193784346114,0.012910245150731043
84,0.8424923418597069,0.9764982377683503,0.4947858510418208,0.6072806608541297,0.06603484524516195,0.001944174836072537,0.9744589497386078,0.625838315058584,0.034328809478007746,0.0030724103615896556
85,0.8429824057583282,0.9764607737065552,0.4954787558519024,0.6097572648907725,0.0659988699748831,0.0045795135381615235,0.974704850956657,0.6250733049598469,0.05232744530380142,0.003951019376898553
86,0.8432393138856439,0.9766443964438799,0.49570416848201015,0.6107952067241231,0.065930699558986,0.0024649021300996343,0.9750455784483929,0.6243374612172302,0.040284524745036916,0.00381746923000627
87,0.8428122486095951,0.9769477742648891,0.4953697985281341,0.6102894658645008,0.0662463890451024,0.0090258365405936,0.9747523158871145,0.6236443459111611,0.04035602113545477,0.008879656940233465
88,0.8428836836356266,0.9767607298953188,0.49583482690257835,0.6041527005475341,0.0663780556998256,0.01563103304737507,0.9745044998580353,0.6229998943403559,0.03312954333589551,0.015185668144207057
89,0.8427105285068912,0.9751892020827364,0.4964612771655942,0.5835789461955941,0.06640762586258864,0.04054369379023422,0.9751665416329757,0.6224108236049615,0.029056913407142133,0.028480720899439982
90,0.8428054353335153,0.9710684903124014,0.4962033746985567,0.5325724807608346,0.06546732255491795,0.07885524411208755,0.9766944304599078,0.6218777073785918,0.04367529795372396,0.025961420137294577
91,0.8419597898888589,0.9637851446361556,0.49519489817401924,0.4467376153374635,0.06516241056559967,0.11774741627935309,0.9789569762592352,0.6214159592129923,0.040512005751396504,0.04465678611346583
92,0.8414104102162675,0.9536098548298665,0.49184954046856144,0.3411476553828324,0.06433058736924128,0.14429725916733252,0.9813002772022418,0.6210147327593897,0.17621166564966412,0.044319156052870096
93,0.8403133486350357,0.9435430284236093,0.48543454109442014,0.24600591111302308,0.06299515975996864,0.15578164793465513,0.982188598762313,0.6207122545134138,0.02828571054052145,0.04097334796550663
94,0.8392418497555484,0.9357912021096877,0.4792825039401941,0.2677606075745725,0.06232966563051552,0.1290914861682403,0.9817301264863304,0.6204519316652635,0.11130044087355012,0.029801938433138775
95,0.8394337789323044,0.931658161959598,0.475619779949125,0.3075275905768701,0.061567599677796465,0.08778999449007638,0.9815824612268462,0.620168316523689,0.08634384043499116,0.05340857381095122
96,0.8401585898746368,0.9321595967774798,0.47404984136070993,0.3270969247952507,0.061170758829925675,0.06752797661004119,0.9822352181004014,0.6198547968760105,0.06662655959390863,0.06532129529181249
97,0.8384126007021399,0.9351772158053956,0.4723613502474076,0.33384425183669364,0.06252038907388931,0.07065894879993674,0.9833495680366716,0.6194804739619679,0.0454211962255873,0.09500879812739399
98,0.8361337862227521,0.9375395373371417,0.4748412813414117,0.33227583554207285,0.06358543279881958,0.08719408091126009,0.9858058894062758,0.6190200457235664,0.04138682627224885,0.11890383811527869
99,0.8335373364816061,0.9389117900088654,0.47798771445752275,0.32994162346365524,0.06487336568474301,0.07648250114274453,0.9891515371217099,0.6185015247578818,0.10530997103075575,0.09373761812932208
100,0.8293216369165177,0.9395359143392339,0.4804311786721075,0.33147176511768495,0.06776094986697545,0.0608797831319096,0.9921996330564917,0.6179510347455315,0.09696027250006996,0.07866097871097437
