Frame,Center of Mass distance,Symmetry,Grounding,Arm fold,Leg fold,Kinetic Energy,Potential energy,Bone length coherence,Torque,Center velocity
1,0.5070213170409158,0.991249743754318,0.590319602227164,0.6708950525015185,0.08251987059660537,0.5917610485167513,0.7531895887861517,0.9999978533877886,0.3549703600019782,0.5458263725741067
2,0.48583689795834456,0.9892286368837497,0.6117809386190026,0.683482432122644,0.09767283657874676,0.5917610485167513,0.7531895887861517,0.9688854022888118,0.3549703600019782,0.5458263725741067
3,0.4628642525801443,0.9877218046449315,0.6199203039529964,0.6809045836244991,0.11207166832674441,0.47047557026350595,0.7802070597362482,0.9435237437909069,0.16962523122782816,0.4693247419923377
4,0.43259524047717995,0.9906056751007346,0.6203931755838024,0.6676498781539519,0.13594105491975697,0.37701065869208356,0.790912661355981,0.925017075756635,0.02682501479426352,0.36225797068390764
5,0.4035595211530326,0.9946134466471376,0.6198400374463454,0.6480647669253495,0.1602675237109847,0.3806273034931762,0.7940197234607423,0.9105555591000165,0.15576049704357361,0.3961516463715473
6,0.3799943307123519,0.9960805721150159,0.6293613922205162,0.6391578714682872,0.18260627269581858,0.4446369707355207,0.8039297626660191,0.8944565292506121,0.08029102048353881,0.4764435348737413
7,0.3711186748992723,0.9935918893371151,0.6478083448504497,0.6449473241686923,0.195240971751041,0.5423911947901259,0.826882614018071,0.8734554608792093,0.4198802360236793,0.5268652062567573
8,0.3611754264178198,0.9928078808916733,0.6587172173593069,0.6467256956719296,0.208892211334154,0.44688429863241447,0.8517472175928922,0.8501967659293015,0.3687419562637001,0.49121844288727023
9,0.3369552081422768,0.9962402341185483,0.6548815872074331,0.636419890688037,0.22852438419211143,0.39031258764970306,0.862608780580417,0.828283189111724,0.2969801400961011,0.4161111609438255
10,0.3089738744662369,0.9999999957196208,0.6454191795271489,0.6279317742458157,0.24921600383009912,0.4265004244693563,0.8596069734222825,0.8081646888076027,0.12115602877208853,0.4304158508607833
11,0.2872695596598886,0.9968420449469407,0.648920754766117,0.6341872888062764,0.26662850285854944,0.4983895156367498,0.860429140055425,0.7874979047589747,0.08403858040087042,0.4886594156767328
12,0.2703158906666948,0.9888893907502754,0.6595686468742665,0.6477410067342441,0.28277908529375984,0.5450406700277172,0.8728912647691106,0.7655661503664263,0.33083882793313724,0.45456165421685385
13,0.2508702299911253,0.9816433167317179,0.6589641304754356,0.6478258917032075,0.29735635165656793,0.4195376317885538,0.8816652033002681,0.7441138717804983,0.1801714981312477,0.36989095864500526
14,0.22812836019236915,0.9765064694713872,0.6509585867505974,0.6360528573080175,0.3146897589330399,0.32547408529885585,0.8789069200316917,0.7246103792892856,0.06735750344613495,0.28982761061139445
15,0.2066823291395697,0.97139483669546,0.641792233472953,0.6218973565634569,0.33088079049541885,0.337182653477716,0.8716309003614866,0.7071559395051951,0.29899125796817205,0.3154399312071521
16,0.19500317020430266,0.9633298698372347,0.6449035327676863,0.6222016765969699,0.34293788112917034,0.39266972135757644,0.8706847772273388,0.6898647703303649,0.05656113113403466,0.38498697173035273
17,0.19296934837548685,0.9549583890038275,0.6558195050659391,0.6334815524264716,0.35007554753036385,0.4803418841818062,0.8799025057896401,0.6717013108062893,0.4044603803733923,0.43417943926532654
18,0.18433764011190723,0.950197807751255,0.6611839191177857,0.6367926860842519,0.36436438560138495,0.3737661404309543,0.8904109456455803,0.653275057357057,0.7841793852214075,0.3836735255464881
19,0.16695448142792965,0.9479747245687896,0.647899182867341,0.6249643475464491,0.376544127561911,0.38765544361984106,0.8875990784830358,0.6357163590623012,0.07019259696455707,0.3752816634895978
20,0.1505321211997055,0.9432374059012969,0.6330245267551604,0.6182981525119545,0.3869272474758294,0.41573982978765806,0.8725730273639862,0.6186132047969288,0.32851318332913254,0.4052300909029311
21,0.13744336178829508,0.9335594020789888,0.630563718102504,0.6297862304404197,0.3996873483194946,0.4453531392339168,0.8630974727802276,0.601091110183021,0.04377292234457326,0.37709441587999704
22,0.12693075605748444,0.9224024975987717,0.6307622796884802,0.6443394992076796,0.41190638849502376,0.4574713656464676,0.8593481837916824,0.5832572247559651,0.3502855865222162,0.3396737203457093
23,0.11576703667737101,0.9145735913963925,0.621523052344414,0.638644397642659,0.420628300213725,0.2916552105244236,0.8522327851407379,0.5661518921495963,0.6161115762990245,0.26939764943158456
24,0.10145497210640597,0.9101806467781015,0.6041146894596618,0.618422757731185,0.4328014914512844,0.3728620964819916,0.8384185433878828,0.5504592733842592,0.123021638894047,0.2767178574056085
25,0.09076901646830283,0.9041607667143542,0.5871775184701106,0.5980950554040684,0.44265498887345206,0.3536421608575745,0.8215463587450512,0.5361798159108344,0.7812431983047385,0.26443175287187265
26,0.08554993083400068,0.8942563238066621,0.5826931936703152,0.5975925731923931,0.449744658587251,0.3131389540610092,0.8110456826440463,0.5222264799471643,0.04458197452049916,0.3292880886804266
27,0.08363047903713862,0.8837399579187799,0.5876574578189879,0.6095208517401308,0.4559677260110674,0.42966746537366884,0.8090505874241289,0.5078868984026392,0.06857708240936522,0.4135005972957685
28,0.07744335678123747,0.8767599673402956,0.5839749000886227,0.6074626377060546,0.4684813783854295,0.32616739046142273,0.8077908532038586,0.4935454118859604,0.864890161048736,0.3629861552194428
29,0.07005949346787736,0.8721351492419718,0.5641377277149385,0.5922012224258271,0.48285517103466025,0.39530676196356923,0.796172143186729,0.47969905470227936,0.231125840684531,0.32902656445800743
30,0.06280623885674631,0.8667556624058067,0.5389087804409465,0.5784211406268013,0.49754555675869977,0.4430062268402412,0.7741828045222432,0.4664115692483281,0.27451824501260713,0.3363770468513289
31,0.055091642937637596,0.854691183981588,0.5202612136602879,0.5821652544532405,0.5130710701483481,0.436584157530273,0.7498556808084796,0.453138512527862,0.26795888240338794,0.3757426536194286
32,0.04885021602530487,0.8376113166642757,0.5129889927901138,0.5941916862371085,0.5281989624044803,0.46883738345068116,0.730203073956816,0.4395695113313034,0.09785444176538884,0.35540582493199896
33,0.04078870440354303,0.8209303373133658,0.49918828505804913,0.5972242204999569,0.5394187238681104,0.38783141481748096,0.7131221194330291,0.4261234966975506,0.10502609645281126,0.3019971266267421
34,0.03057469423379583,0.8087005628722712,0.4821284091820943,0.5888443724895485,0.5528715316922924,0.31390344750949256,0.694464675169522,0.41338692177320135,0.04984889921859312,0.24279752082650954
35,0.0202676891550054,0.797347403443262,0.464909700073021,0.5745937774890142,0.5675386907888785,0.32811476280511537,0.6786391152432969,0.40151962069560865,0.36773932491227757,0.285969350838232
36,0.014207733509382616,0.7849055625502465,0.4544287752875913,0.5698458969603147,0.5792016007943518,0.3113748180756084,0.6663024236073402,0.39006897106511484,0.3467138850932862,0.32552828127875616
37,0.012198145787462991,0.7717317058269499,0.452729556352969,0.5758943362255999,0.5856360055253169,0.3618352905420532,0.6580182679992136,0.3785381028882096,0.031524632052353334,0.3871374245608987
38,0.007709226253291932,0.7615947606545541,0.4485666664000052,0.576481489201315,0.5951424480542861,0.28046740396942044,0.6541288699530208,0.36704058145026053,0.9999999999014365,0.3118431921525809
39,0.003976665114997023,0.7528266508581647,0.427225108386236,0.5664864762936257,0.6069782544467429,0.40574399605820277,0.6430932541460282,0.3557457415861655,0.261100555639744,0.2996282574978728
40,0.002102755842593191,0.7404804899818219,0.39968486897302535,0.5591654257473393,0.6206703164553723,0.4724438093311937,0.6194449733033244,0.3445488439480283,0.46037780769734254,0.345046428162446
41,0.0015659501102225682,0.7206429419703994,0.38207581977706867,0.5731980551511564,0.6339520510384045,0.4705842602657472,0.592998224265984,0.3330231568854001,0.23315129811532279,0.40436748521880417
42,0.0007775254576997973,0.6980326015905817,0.37023558398658957,0.5906957982973339,0.646854381217904,0.46976487281258467,0.5694706311134878,0.32124754028271035,0.21724690518234976,0.36010895430666895
43,0.00017381265490282622,0.6810599620352031,0.35364714054076707,0.587640248635209,0.6574767396291057,0.3135064974737808,0.5501831311631249,0.3097988883640455,0.667245851607528,0.24747130536012787
44,0.0,0.6704558273372774,0.33267002501958676,0.5674701992205904,0.6676805123391071,0.4390661802271506,0.5336875027281512,0.2991999045163061,0.062271372674867174,0.30987693531032146
45,0.0011403391726725034,0.6590596579739102,0.31353186319258425,0.5470699488598382,0.6764087772461103,0.4319993225283069,0.519405878876055,0.28945427494349496,0.920231894262018,0.33196681777312687
46,0.0016088371581621554,0.6434064298168403,0.3071144713977354,0.5470199387405281,0.6801474933294115,0.28393620507997525,0.5097576108416032,0.28002113322850963,0.2161143386923378,0.30223653768026754
47,0.0007771299988999352,0.6263109617623837,0.3113287235764114,0.5620930895990743,0.6799782777820192,0.40544287843503785,0.5060306837634216,0.2704682529579248,0.03179841313941609,0.37698837824175013
48,0.0006878244972735858,0.6131319688630706,0.30889959337423717,0.567808458408502,0.6840347183163634,0.2997001345330558,0.5041804701133551,0.26087313651103805,0.861902865675864,0.2900638545409426
49,0.0071540323353852155,0.60222434028367,0.2885762517969493,0.5579568944048258,0.6929143306904998,0.3959762339824147,0.4941734744072232,0.25151921941692196,0.3943887702414978,0.25517848109497626
50,0.017875103341787327,0.5890858290201357,0.26162352697182595,0.5474108420551127,0.7048500464097001,0.4921278174865512,0.4744608687777228,0.2423566594960281,0.5491152046146186,0.3174105265575545
51,0.02721349343134946,0.5672174736206342,0.24030218992796734,0.5569693993286646,0.7203261483147934,0.42915383320455996,0.45023536870869835,0.23304423048471387,0.33244377591427926,0.323867489852471
52,0.0327679936035188,0.5435779560379734,0.22818133005070598,0.576797590970307,0.7321159592103845,0.441366095786952,0.42724199093102067,0.22353286968759803,0.022497881211695617,0.3001336176549717
53,0.041159102299186,0.522524337481636,0.21129736538800853,0.5807714050866079,0.7406923193267821,0.3406576235331577,0.40834895222979234,0.21425080794885734,0.6002652381270339,0.2528418667891887
54,0.052900827633731703,0.5048986272444888,0.189634853597271,0.5668548045608557,0.7486799576467014,0.46061283554974636,0.38976020866876787,0.20560929576305725,0.3587794601964599,0.3129335687020272
55,0.060154287086050945,0.4890943228524904,0.17240498366737472,0.5497208115025731,0.7593387298711607,0.4087965222617842,0.3755358187043146,0.19772120904622062,0.4826053268716631,0.39169270020116065
56,0.06364877711897549,0.47171021573238137,0.1629092418544963,0.5461227721692623,0.7686017633039209,0.28692358210815694,0.36727615814392284,0.19025633036696646,0.06923864969212185,0.2968948705429067
57,0.059884155472965814,0.45855260194075337,0.16647887645234014,0.5584091400112522,0.7693867081776917,0.40401290266847584,0.3630761246235713,0.1828147481366405,0.027417801371420063,0.4144092929520459
58,0.058907611899675666,0.44884649298304236,0.16577847080305552,0.5636560306175097,0.7727458480562931,0.3368931120095622,0.3620889047683697,0.1754098525859095,0.4229531356588561,0.3149919146212922
59,0.06985548712608632,0.43794178606219425,0.15230274179914696,0.553034610982721,0.7784624697442495,0.4104177985022867,0.35673747016808943,0.16820852401247732,0.3819237931435478,0.25123104902807514
60,0.08772522596479346,0.4246441848929585,0.1339734027328995,0.5399710863494603,0.7816900264714262,0.5198507127110337,0.34599558798229557,0.16118664779094874,0.6691416664923986,0.3245743259741153
61,0.10174944691294054,0.4075154286580765,0.11971981583175448,0.5456553948051364,0.7872997055508464,0.3708997975519798,0.33219294087525897,0.15413193150920507,0.2770838560728342,0.2853414974005194
62,0.11105435876800421,0.3895911937967748,0.10865623526385418,0.5652020769306846,0.7976668845157906,0.4051738106294839,0.31537060886845897,0.14698927740934808,0.02524951417286351,0.2562296538101741
63,0.12174724399418722,0.3715689220200973,0.09609466728504766,0.5716002784162206,0.8043928255300083,0.3262522031341008,0.30017602698974777,0.14009040475704485,0.5028103966474561,0.2737688135452648
64,0.1386865006489382,0.3524141564273271,0.769231961807272,0.5580790227072107,0.8124553212541954,0.45009103083312557,0.2875073525223176,0.13377715410607735,0.0622934738772199,0.36094820555614093
65,0.14699571108513154,0.3369918215757572,0.7800699526807235,0.5408312928322387,0.8187429540355905,0.45323194944375567,0.2788528918366956,0.12813680398250166,0.3370532296402001,0.42329655906135616
66,0.14624042448816182,0.32616866829791286,0.7812122370348866,0.5403601486461824,0.8191643586239138,0.3492873094546274,0.27602905694748653,0.12285094890974534,0.03158895521567475,0.3679223554229994
67,0.13593549052597192,0.3222586588283323,0.7725437429585182,0.5530628938127712,0.8132842518906958,0.42473517660228693,0.2784129153283375,0.11762018955909452,0.037086005603597906,0.4097221114221318
68,0.13087167920857326,0.3175623262306743,0.767933939102776,0.5571938525512584,0.8111380975704546,0.3792328623657355,0.2841532257855961,0.11247737856620889,0.39966431458445073,0.3028960017561103
69,0.1468446137617743,0.30457436405703137,0.7774750297680784,0.5457800196785011,0.8090766993011371,0.4909923576170283,0.28448910431915847,0.10754731486397992,0.2704806426002865,0.2585366292275776
70,0.1715518240660177,0.2878605380565739,0.7924807533644486,0.5318154964912596,0.8075216064087891,0.5893718640843615,0.278333716623087,0.10280083048626784,0.48324637713255075,0.3508519768645725
71,0.18573407421246493,0.2732052014614687,0.8014385307851342,0.540593242060084,0.8097296416784949,0.46708792190817977,0.2690896459310437,0.09800782882865511,0.3647944959500443,0.37998004576796734
72,0.19114272626925644,0.2606991604410745,0.8070809671375871,0.5593005347773076,0.8156661722657916,0.4200945649650459,0.25819016760791985,0.09316764650419104,0.0357801986102964,0.3917895850274216
73,0.2026868715250199,0.2461867408082639,0.8158517045955168,0.5636432685229427,0.8177847570854747,0.3681465529298908,0.24828177637429097,0.08855335928738932,0.4228613307694511,0.33709966477548237
74,0.2194254276496291,0.23141239574609482,0.8257783246490719,0.5523984443879517,0.8181378835675356,0.5036657592596384,0.2401446233922277,0.08444913464909673,0.15362845537948008,0.36062082866912476
75,0.23028501650049293,0.21954588582625442,0.8317160416834682,0.5348810867950358,0.8194918145920261,0.5777032791973215,0.23527875914394483,0.08097995544002287,0.5003069954881572,0.44925711549644115
76,0.22318348837234547,0.21950832621667563,0.8264405654225541,0.5251238511830416,0.8161304080032484,0.37865687998305014,0.24156242511895598,0.07803472494673118,0.2782899306217651,0.3067676020591174
77,0.21348894584773798,0.2119105380872853,0.8182025326596477,0.5342831033825739,0.8133578233567834,0.53284216310988,0.24891430204546458,0.07525830863442809,0.3014864459029189,0.5652669458078523
78,0.2000328194017216,0.21020766466333518,0.8073291991869236,0.5430208704532454,0.808338629197707,0.3883892576725945,0.25319404556911035,0.07259676440575857,0.03314610730902644,0.35973204297887973
79,0.2033291674196978,0.20414687286894162,0.8040297334241717,0.5396180321855861,0.801660904859339,0.3825375049156317,0.26089897829856834,0.07009251411288324,0.2197948391881022,0.22581951584680884
80,0.22110385366315585,0.19284657911037653,0.8071623320870919,0.5298839311964357,0.7912517241978559,0.4946575262047009,0.26531766243784755,0.0677170482117973,0.15695754136598664,0.2540383561112234
81,0.24327164428080836,0.17706557998950587,0.810095607470086,0.5274841003357548,0.775105801565637,0.5766831858960076,0.26607932032598797,0.06536584615933055,0.19014342361293937,0.2958573617645467
82,0.2526729036333478,0.16493171931723272,0.8067802022592049,0.5396716229850673,0.7607388697836615,0.4954991814195016,0.2667951080516083,0.06292884680932372,0.5171766075255011,0.3458818294062103
83,0.2551699344480746,0.15541358719654175,0.8084435814890295,0.5525985441652247,0.7600689525454263,0.31007387084337423,0.2654532801845452,0.06049140631378841,0.18090744419286667,0.3524741901980579
84,0.25170074105681545,0.1506503037917243,0.8057018360541797,0.5546202038385468,0.7642443470150809,0.3336485891963953,0.26467124177020485,0.058274576896276485,0.025328705599359604,0.319716289511036
85,0.24975096337327463,0.14947044693490008,0.8035622618025786,0.547312403168908,0.7669736494563673,0.32705273857911604,0.268889952842639,0.056451373320150475,0.0748185381498517,0.29563571383672405
86,0.2443236332456155,0.15145520279904642,0.7989502450254663,0.5416224956948382,0.7664163779626179,0.2916880691105207,0.27479608613377404,0.05507459960729898,0.017654937225840883,0.2859280285734519
87,0.22482571152527805,0.15725536274573737,0.7852080674600733,0.5465573825774436,0.7628265706709121,0.3068156396156667,0.28412457090793075,0.05399918668211701,0.05045286716246541,0.3003912125600969
88,0.20537656509788738,0.16292061108653216,0.7689511452925445,0.5547200514286887,0.7558543980061811,0.3375696454322241,0.2978737516285631,0.05311699828541467,0.05776399180439316,0.2680340953145315
89,0.2029060799822797,0.16455465002122818,0.760796850757134,0.5472933282061725,0.7489236869619696,0.29889313807143164,0.31199722080633824,0.05243541668299853,0.06744692085803511,0.11787219242105144
90,0.20332930641853406,0.16549924665072374,0.7553486383440587,0.5371432938132668,0.745286947527379,0.2604467117538621,0.3242074287966024,0.051837039245439955,0.13423270988792968,0.06255505904782772
91,0.20144284251943023,0.16344978339230504,0.7496160815705933,0.5388218218490476,0.7417169558934519,0.20753713044566913,0.3341552445018379,0.051173567690147734,0.09060842972921745,0.14892029620525035
92,0.19875605867762977,0.15801947118911647,0.746939408852553,0.5527985825727288,0.7400120028251456,0.21770088723017839,0.3376499906399334,0.050314095881254434,0.00981167291566195,0.20944941454337188
93,0.19996202774406155,0.15100945109577316,0.7468499298580248,0.5698841072341189,0.7378440393343748,0.21954110628293833,0.33475636047706553,0.04927239022022614,0.012628002618303533,0.19404824904612655
94,0.21027129710745426,0.14235298012512665,0.7537912869120513,0.5726673793048999,0.7365038136701993,0.18889628203146314,0.3275787241488532,0.04818779306599907,0.016941943831924353,0.1516080662974713
95,0.21816471083671832,0.13535288917364155,0.7585357903294493,0.5754885199679458,0.7381649669022003,0.20562828104374903,0.32026267946684,0.04708793571356652,0.0570028338575748,0.17375328868850656
96,0.22561147640331208,0.12916435832584167,0.7632532255492191,0.5795117939967559,0.7399571087739586,0.1769930524581447,0.31476913479817725,0.04598981999998145,0.10484318188384854,0.14184900685958313
97,0.22969276965946817,0.12499731016236483,0.7650487065634388,0.5829384426325311,0.7395922059327925,0.11283703123246837,0.3101960407081157,0.04488258443235549,0.08978064351760918,0.08403837845142838
98,0.2321126667665592,0.12338026606441788,0.7670959474726574,0.5856482915865832,0.7394208448472334,0.056742377966366435,0.30717466773525304,0.04376414871834359,0.057467558732320456,0.0419682455642616
99,0.23305737617067265,0.12280678124723753,0.7668581706750113,0.5871025655363021,0.7384135529563213,0.028888498147542928,0.3061672222283269,0.04262656815979336,0.01185999901094826,0.014448741911345939
100,0.23231977082523553,0.123346593655125,0.7657769180508079,0.58750782836629,0.7374989737667679,0.019978057197151428,0.3072580574574795,0.04148524370621028,0.013786673015960246,0.023492558175483857
