Frame,Center of Mass distance,Symmetry,Grounding,Arm fold,Leg fold,Kinetic Energy,Potential energy,Bone length coherence,Torque,Center velocity
1,0.9985180745136945,0.600250104616769,0.00010330909786545245,0.999999875373273,0.23749620650199407,0.0,0.0016309625991334782,0.9999988147105676,0.024922084765356563,0.0
2,0.9988454324258543,0.6002016984090172,3.9073073497141644e-05,0.9974841414827691,0.23744181938286552,0.0,0.0016309625991334782,0.9991264103151454,0.024922084765356563,0.0
3,0.9992706296279105,0.600595456113394,0.0,0.995185468335955,0.23775086348913738,0.0003002353662665739,0.0013889382284245977,0.9984641513404381,0.019250218506357327,0.0032710493476940526
4,0.9997165355556727,0.6008596480199578,1.3937237874817087e-05,0.9916240610340044,0.23791258727189862,0.0027040172887354825,0.001115089347161723,0.9975268942871469,0.019241925067632816,0.001728084080778854
5,0.9999999976708288,0.6010525319574372,0.00020794684292118175,0.9888988264397076,0.23825065164167727,0.006121109918831945,0.000700301661708869,0.9962665104404579,0.020312990931994374,0.00460982495106759
6,0.9997992349799023,0.6018887322030069,8.337939000952308e-05,0.9836383721982876,0.23723914041551242,0.006310823949402533,0.00018637239032034326,0.9948067480938311,0.019377956152481016,0.0022958484378134375
7,0.9989442668773555,0.602729257374114,0.0006837109980778672,0.9789954939037261,0.2372380343266188,0.010480204312529343,0.0,0.9933488565327461,0.027183061112042547,0.005596813704318786
8,0.9977155847222667,0.6039256884066936,0.0010747671160345306,0.9724501132485426,0.23632518663303154,0.009433973612912629,0.0001923775492187152,0.9917120300786458,0.030797149548858403,0.00418150745903082
9,0.99551836731926,0.60535942217898,0.001795503986326435,0.9651214799955199,0.23478081449492852,0.018173838954927576,0.00022508664491658492,0.989731658534161,0.019503967380102617,0.015253263451461285
10,0.9912258632398144,0.6070599194792827,0.003183289534318613,0.9559647887042387,0.23276351002964205,0.024794342078302258,0.000984818826425896,0.9874334865897767,0.02203573302784169,0.02470641891972624
11,0.9857648177145453,0.6097662280085012,0.0043469268782412645,0.9469364519217484,0.2283097425515401,0.029502457232552133,0.0020707126578271237,0.9847097614410557,0.019613500842513686,0.028166709894896037
12,0.9765630005217186,0.6136655137547572,0.00576161075302678,0.9362631523555027,0.219933268530577,0.03897713242592717,0.0030728941482861087,0.9815509587828416,0.079874465572723,0.024060018248650804
13,0.9606224797476374,0.6198004983500004,0.00864942542135079,0.9267691697520282,0.20677717634240356,0.07074500825219283,0.005284021971382805,0.9776757656616156,0.02039065747714364,0.05977514875320017
14,0.9427400052828903,0.6276765301939228,0.011478576248931399,0.9194757557991103,0.1904004065501092,0.08057428921242313,0.008253624032506991,0.9729838543105297,0.02048305492773204,0.0585469500232763
15,0.9227003183052023,0.6376127897876965,0.0143419058476038,0.9065995343136358,0.1715089465836751,0.09053760027934167,0.011444564414321193,0.9675068289240031,0.04831258527885288,0.07715305822490419
16,0.904157386263469,0.6478025288806637,0.01798770018042384,0.8928247008887044,0.15596359392568235,0.09749030884731436,0.01565881256920487,0.9612413773750141,0.09567635159043616,0.11445636233297726
17,0.8837740696904192,0.657665327121872,0.022975834904274763,0.8803177693629988,0.14101805692310665,0.1181272657553278,0.02152930659146299,0.9541777720946282,0.17804672296009982,0.16006119629442214
18,0.8624572770403789,0.6686318519230576,0.02948357595807924,0.8678596974821338,0.12768701452315687,0.15796879467835223,0.02909738770622449,0.9459740322735023,0.16165156047058443,0.24793630664508715
19,0.8371430716515368,0.6810101721029738,0.038181144503645154,0.8582663088644179,0.11249006828061821,0.1978170427495851,0.03894860311044361,0.9363505413725707,0.14096550357297566,0.3141752595071391
20,0.8090678272634894,0.6949800440068494,0.04916048834959782,0.8504067045559169,0.09577516360042135,0.2349187390501935,0.05174781615203006,0.9250983100697686,0.2559032013947962,0.3756243547207273
21,0.7748664064469857,0.712479224289201,0.06329395927980223,0.8451829347115462,0.07557874474688772,0.29028301907725756,0.06883277179906086,0.9121079844469416,0.29699583126145335,0.4571317339399438
22,0.7341603258207762,0.7344750575837582,0.08197820952860299,0.8423384251143092,0.05149367955604853,0.35568985864124747,0.09280273436492156,0.8972061062055695,0.29399931044669303,0.5499000669534901
23,0.6886412984077491,0.7609892817752114,0.1045916220176365,0.8402706464480204,0.059878118587351224,0.419387826480605,0.12469986621923802,0.8803036605924067,0.3747066963913667,0.6462962084810862
24,0.6393128767943893,0.7913259716722092,0.1318128507510825,0.8370433777065649,0.06908911924863194,0.49296068595933124,0.16549348532861202,0.8613976860193876,0.2934643907221532,0.755925598798008
25,0.5896763543655048,0.8233130770839227,0.16187487631146166,0.830909895960026,0.07755332231192207,0.5517843749775373,0.21507782910276407,0.8404363694063827,0.30103318432577597,0.8509328313643651
26,0.5391640915147469,0.8565716753027326,0.19373978120583635,0.8178211364515443,0.08111622743214277,0.6101964700368198,0.2722813026587594,0.8176169636222221,0.18791375156559129,0.9503153775002176
27,0.48468489057132597,0.8908989660139918,0.22423596257211376,0.7868032770545808,0.08480164338027031,0.6347331879150324,0.33387738326892874,0.7933777181180761,0.16204426994810134,0.9738001596357265
28,0.42780642584272827,0.9223337660303846,0.252072571876703,0.7452023413028707,0.13685234225165166,0.6448009674390264,0.393689057188587,0.768204462352464,0.37198293591317777,0.9634096337355809
29,0.37483829206983704,0.948853923328328,0.2718277253185866,0.696209562470273,0.19057469114734754,0.5676243598570745,0.4448104639758406,0.7426032391900712,0.06679820364275298,0.8357456267746033
30,0.32372004083126427,0.9700910898604778,0.2892878847763017,0.6499808927269206,0.24615473856064765,0.5474601613869174,0.487013118492933,0.7168234384211651,0.09710390509136409,0.7692950007134597
31,0.2779012040465048,0.9852853232959029,0.30258051184172735,0.608260923763877,0.29840372597971315,0.5273385476732343,0.5238516247396661,0.6909769358367371,0.11843563573094254,0.7390555978869647
32,0.23754493998041346,0.9955739806177556,0.313209411433589,0.5723888311416722,0.3473933501781023,0.5104756450785816,0.5559492017732858,0.6651163230564061,0.10462796278340261,0.7215591302383445
33,0.20401607168878233,0.9999999951152926,0.3228212993893249,0.5436245481934607,0.3899869874645884,0.5090553899813762,0.5856498524064128,0.6391237910515707,0.03736474168559151,0.7272187886418925
34,0.17663722795220896,0.9983130313312096,0.33226562188639047,0.5204796178089692,0.42530197036083417,0.5360133866441987,0.6154259006820895,0.6128698213776607,0.049936847397995546,0.7825216512367454
35,0.15435283265138983,0.9908834718284663,0.341288559859735,0.5021096524373788,0.4542901119373304,0.5526211031953114,0.6454905245560859,0.586321402378039,0.11667966652471809,0.8149749520619807
36,0.13438045795419026,0.9785059300676917,0.34927177378669166,0.4918325986979644,0.4809856276122221,0.5934703439972355,0.6739510040242199,0.5594239592831584,0.24433046032915176,0.8645830664655737
37,0.11271749714729425,0.961336901542079,0.3557033853901301,0.4896558325283878,0.5138427965451943,0.661484607056933,0.6991948821012252,0.5321015328923984,0.05446985503077548,0.9409106058248203
38,0.08865512298324307,0.9420183152295207,0.35448292804238135,0.4888461709808472,0.5559618767641145,0.6691225779325694,0.7162508168992163,0.5044820233920363,0.25085562994052824,0.9294068251196793
39,0.06349740985122457,0.9185682972811008,0.34387004000492655,0.4730268862438447,0.6020668379778963,0.686987631239995,0.7201741533349497,0.4767798552176301,0.9999999998842833,0.9646818931779885
40,0.0383058781991042,0.8924948318487308,0.3180686673799715,0.42146270228287036,0.6513027316040383,0.7226217656570928,0.7059378936695314,0.4493652508385593,0.45090356746328386,0.9999999957178617
41,0.03666038442111496,0.86515959989542,0.282958419704437,0.3494932717319441,0.706806066101213,0.7201860096411569,0.6743093042970864,0.4225474721447774,0.20068610216942118,0.9384515135739205
42,0.013304045460462663,0.8350389944665001,0.2446294225279872,0.2724955101823635,0.7590909838384902,0.6793572768061915,0.635904169190293,0.3964323054635854,0.03993540343066861,0.8340454508835388
43,0.0022201058016841054,0.7997047662305362,0.20428202724139782,0.19642097588595836,0.8009093373137949,0.6822256218499498,0.5958370604193033,0.37102217919675523,0.20260560514143058,0.8150579761679589
44,0.0,0.7615487756029685,0.16388444162930998,0.12332988732051266,0.8377403273368028,0.6533233517617326,0.5552764990487326,0.3463973965772343,0.38550197811038406,0.7423433852142464
45,0.005563209581394914,0.7186072574835528,0.12671601099485816,0.06458096859991512,0.8663362188428795,0.6224233470743948,0.5167524694867197,0.3225336512736668,0.5008624084124642,0.721658571639855
46,0.015226093082316844,0.6721874283750068,0.9053350978685132,0.0241809332970913,0.889168639915579,0.5840053667664217,0.4823577817975135,0.2993280051219705,0.32076165969369974,0.7002208306143116
47,0.02620032792182687,0.6226386595185622,0.9321900402637663,0.00314279496387859,0.9070700916310156,0.5654614198162441,0.45215696838561525,0.27669423851778346,0.16204783001256945,0.708391348377512
48,0.03620447546963493,0.5697664260624868,0.954274013962676,0.0,0.9213592631147762,0.5625197872147164,0.42555606223598497,0.25458912294825414,0.06795224716662857,0.7279648803850904
49,0.0454337593919043,0.5110141121236041,0.974591917277814,0.01120862411830134,0.9349524001837255,0.5832904932737443,0.40135285573760165,0.2329949792262204,0.44121639441201455,0.7600386219411126
50,0.05961093306604706,0.4429441988860089,0.9999999899979753,0.03277370852109708,0.9513616544641503,0.6374763586823174,0.374606401143109,0.21195518726392024,0.5762262590184594,0.798640297905064
51,0.07889992468058807,0.36670043136335523,0.9724183860505713,0.05684437630200879,0.9645578469552986,0.706932505335551,0.3443783057456477,0.19153252086700115,0.9597041317301268,0.8530671921028633
52,0.10028111915205389,0.28990625155317934,0.9439236489851316,0.06552292853615058,0.9793809624965589,0.7940955824052425,0.31491539248056044,0.1718858826570733,0.781541670264594,0.9356216209447968
53,0.13041582308659302,0.2107098638539583,0.9114040057360042,0.05839744304858309,0.9956460866724564,0.8842415741737127,0.2849870403986686,0.15314060793112222,0.23301458031669917,0.9746343271360518
54,0.16045150163026123,0.14119265949275855,0.8859719902511669,0.04565657201471713,0.9999999700861444,0.8360185628716755,0.259012505048836,0.13537186538104842,0.24735927758511872,0.8429848475482018
55,0.18637355708220454,0.0884369559987766,0.8700355993140937,0.03182322447615002,0.9932531600769005,0.7918198020706239,0.24246333275561707,0.11861479331102516,0.09131662925703975,0.7652456713866891
56,0.20964446385002386,0.053938187158929875,0.8619181615162523,0.01831965054738991,0.9754282675663996,0.7739122798879621,0.23425870073752755,0.10288898483576454,0.16766188390060638,0.7211133986408457
57,0.22442806610592286,0.029960358367990905,0.8633149222115918,0.008822250665087395,0.95364630349394,0.7344365904224275,0.23546291586533974,0.0881737161615758,0.20999519276418754,0.6779104764330142
58,0.2317712895235224,0.013191520821882737,0.8717069561338645,0.008644758287165709,0.9308627153200483,0.6822996317492159,0.2453181782175659,0.07444083057497494,0.009832678669068416,0.6415763990683103
59,0.22891458742549614,0.0037326944022921553,0.8896780211091596,0.01614263540360847,0.9083810782290742,0.6854233142493175,0.2634273518120676,0.06167460994060977,0.09258438258506438,0.6613503969025268
60,0.21726846782981996,0.0,0.9167284644481423,0.03097755675145654,0.8876514399004013,0.7181785425461169,0.2901853420143515,0.04988011230726882,0.055061370324059666,0.7111974520127582
61,0.2002078608380413,0.001619259891700432,0.9517892945827686,0.05190779727108318,0.8666377566796798,0.7447974460111487,0.3246802744301005,0.03910113113761811,0.1313474200545957,0.7520869274401797
62,0.1851941833279264,0.005778351829307155,0.9940222435968947,0.08290758252384278,0.839492676547274,0.8034187019484815,0.3671212327290955,0.02940906289492531,0.10582621044821741,0.7709746928864395
63,0.17895231868476655,0.010410932791739484,0.9599247640210512,0.11078003276622196,0.8011059138592838,0.866595398344203,0.41801138170552016,0.02092459504943919,0.09238065852098482,0.7565904281408589
64,0.1814905149429307,0.019319186899536073,0.09095387206569332,0.1331192274888771,0.7554227354722229,0.9379360215835698,0.47812002106576734,0.013812209349737483,0.08266799627846891,0.6899935351597316
65,0.1964232419640941,0.03260640240719127,0.13790496927153229,0.12927273139343887,0.6996675150512691,0.9999999990444441,0.5461778585798395,0.00821682983485462,0.005200135810305067,0.51611645215554
66,0.21427922877322733,0.05807879127613556,0.17534548786990287,0.10983861040221445,0.6448924898638884,0.9579651729899813,0.6137394617207977,0.0041257084484402125,0.13176853507595068,0.345668921086656
67,0.23118293814421467,0.09959308670152042,0.2044621809543159,0.08505122890371307,0.5905070974836812,0.8754979985518325,0.6732209903754071,0.00144221805965031,0.02999854705661126,0.2526289691908951
68,0.24495541231020201,0.1491461294677151,0.22702980934577832,0.056138096958954734,0.5390703386240077,0.8477206005284865,0.72357974334291,8.973396769238539e-05,0.12520855604216874,0.25224591585449135
69,0.2552776881475856,0.19849693753191164,0.24564383110022953,0.034388627091175294,0.4924216645553679,0.7920932461704552,0.766762979370032,0.0,0.19320013929188481,0.27244127834782755
70,0.26399439990688994,0.24210873647362938,0.26372351976215164,0.033312690422983814,0.44879375611498384,0.7147949307764796,0.8057018134242375,0.001085820072877388,0.06021242899981911,0.3111225305930636
71,0.27031518218708295,0.2809568758695063,0.282752282804372,0.05198957230592174,0.41029650590133615,0.6839495704118036,0.8432087232696609,0.0032985813122738505,0.02130796137618967,0.34560956867780385
72,0.274778261314313,0.3127018050448508,0.30403319434827697,0.09536147186467885,0.37534805671468346,0.6653541802624843,0.8812198330300075,0.0065584288579386835,0.0,0.4099397200927511
73,0.27799649022564793,0.33817254764387966,0.3258240555972425,0.16435070754372877,0.34246112492237407,0.6618070086272764,0.9192708027852632,0.010846535183842227,0.0843284048049998,0.44204579931124494
74,0.28123453895489364,0.3613556517660631,0.34380379406274214,0.2446209752234473,0.30570660145469575,0.6975738957399306,0.9549394115152616,0.016195997199754054,0.14073945714409253,0.4909806194030362
75,0.2871658558863049,0.38508009839673946,0.353376502178689,0.3299355608470155,0.25651323667370296,0.7631341019813058,0.9842512222332743,0.022689184591005353,0.005291421329167737,0.5459915312774251
76,0.2920915952834642,0.4126910179997004,0.34719113940178165,0.4057346042861017,0.19897988621153453,0.7917008036555261,0.9999999864327532,0.03046529812297674,0.14083973566602384,0.5450061992896339
77,0.29804830682230843,0.4452712303181221,0.32401651244045615,0.4561783828502711,0.13266184089568686,0.8664934040858094,0.9950955917258999,0.039666630657943826,0.28671035622427893,0.5838769566668337
78,0.3128976720268557,0.46959971439124415,0.2937892668904264,0.4935342918825675,0.06380363820853548,0.7988438621526086,0.9726542808213203,0.05028686242427677,0.32132942509651924,0.5510547717083873
79,0.33653884867984524,0.4846588532932963,0.2613130012605406,0.5238971731332449,0.0,0.7200327077078469,0.9409148147839282,0.06229637562964183,0.20654276116824571,0.5460957367290027
80,0.3681277017390818,0.49184278860116715,0.23015639411607822,0.5521128565625447,0.02198110602373947,0.6619073838773356,0.9045873952573922,0.07557525416169904,0.2886579459184945,0.5502631135981705
81,0.40608214517281144,0.49209204220139224,0.20063989346716357,0.5819642751276308,0.07394830131593673,0.5923351260565769,0.8658855856082252,0.09001754721605196,0.15528629658061496,0.5539089666058912
82,0.4452975219590249,0.4844337619782273,0.17618319992344705,0.6201133890523276,0.11735957673249613,0.541530519636389,0.8271272160128088,0.10549024808610684,0.09485982664970581,0.5646118287084131
83,0.4853151358761547,0.4704030493179063,0.1549608539275085,0.6652851018065127,0.15417708338159017,0.5125072454149084,0.7892548715224247,0.1219335238531208,0.013212280118267609,0.5910479134595645
84,0.5264629758412412,0.45085730355097514,0.13592360381241875,0.7163604009354475,0.18547606320590956,0.504986198553664,0.75117061464971,0.13927469970341455,0.060801989979591894,0.6128544156748231
85,0.57351961121245,0.4255819159561258,0.11751225498500041,0.7732712993781236,0.21795502307206746,0.5025391543107737,0.7116526199075962,0.15752194574958645,0.01021092409085549,0.6529005654904816
86,0.6388609270513128,0.39770599018769864,0.09647958015430297,0.8357297774194915,0.26279715343820775,0.5355468307803859,0.6674609668100635,0.17667903216705452,0.09082104067630795,0.6860815704120526
87,0.7191053859672655,0.3692014010082898,0.07499048789845615,0.8934666596984908,0.31643766140337565,0.5355836599237435,0.6181483585845221,0.19671589474272236,0.058731855914454956,0.6433736932686877
88,0.8171029944234092,0.34132111578100577,0.05317319267133281,0.9455345986174102,0.3765481164792105,0.5858821161345346,0.5633275322403032,0.21765387051375462,0.058731855914454956,0.6645204969972432
