Frame,Center of Mass distance,Symmetry,Grounding,Arm fold,Leg fold,Kinetic Energy,Potential energy,Bone length coherence,Torque,Center velocity
1,0.16776916706796724,0.893709773049429,0.03222395658528783,0.8917283180232849,0.0,0.2440777281754147,0.6129698715449597,0.9999987534355897,0.07287542407400537,0.15211695640849118
2,0.16128827919160751,0.9015846895040598,0.039668820751309695,0.9022387692681396,0.013585177220225933,0.2440777281754147,0.6129698715449597,0.9889080451001233,0.07287542407400537,0.15211695640849118
3,0.15715213268074915,0.9076235493375195,0.04512597218488442,0.9114667523800417,0.02266815164259128,0.19657935480015037,0.6199219463517412,0.9794565077809394,0.05040786568714444,0.15574699851124535
4,0.15464214823494168,0.9119386166161394,0.047386398790026166,0.9146793431619069,0.027794573820888124,0.13723913041216917,0.6254303423857102,0.9719966782460873,0.018183889710578115,0.16317589648284256
5,0.1525266060423516,0.9142598802266767,0.04866811055855743,0.9170989698807145,0.03086001340391366,0.1415236895401773,0.6303929881258592,0.9649746881352074,0.05954036697490611,0.22406587572569706
6,0.15075375558406226,0.9143890811356452,0.05051121867984517,0.926996982201173,0.0318298356210258,0.18584149311338113,0.6376913281755164,0.9568814695711056,0.04101645737516468,0.30848672971082525
7,0.14862420538902343,0.9135998006118521,0.051658352422282644,0.9466910262565512,0.0319957490699405,0.20804896911584814,0.6466493181906451,0.9482664093481098,0.10641227904220958,0.3228991353960911
8,0.14462881550650372,0.9114630944428741,0.05305237118464193,0.972182817649203,0.03386936474333409,0.2514930628759104,0.6556185062104737,0.9397220913230373,0.15979681602653004,0.35069562739782334
9,0.13848897417612926,0.9073589544487578,0.057995579274042905,0.9933401548038175,0.03881253128290826,0.3118585961150142,0.6652264577098004,0.9317308161357585,0.02745638467608707,0.37082726036835056
10,0.12978296657165533,0.9035473823145077,0.06391539523102681,0.9999998911072241,0.0493630517537133,0.320201399688071,0.6747234519932426,0.9246068471730663,0.06404811369921355,0.3460319291595465
11,0.12213913377480486,0.8991848624709535,0.06920536606513282,0.9889270781537289,0.059133044953724276,0.27713251835627,0.6822031709988842,0.9187409843054167,0.08557060326680187,0.27709036929417097
12,0.11572577835209238,0.8963924653638271,0.07125699019141815,0.9642764982188454,0.06724783524292909,0.23093827603360434,0.686553416412269,0.914140757136897,0.08917356829025162,0.24386658592755983
13,0.11174515301745974,0.8954789043187827,0.06927549671403932,0.9311429038738576,0.07165416907241479,0.18323350893734625,0.6873619161792482,0.9106377954210264,0.08151217858547868,0.23403698919642754
14,0.10968670399258315,0.8946744631604151,0.06682898223473366,0.8892611477191806,0.07286506369940654,0.15615210469172092,0.6863559123637005,0.9078944121419326,0.024153539948817332,0.22913154032006916
15,0.10868765297598283,0.8940849398284298,0.06529991415057722,0.8461440588491099,0.07242053276792154,0.16000321032879306,0.6863404202240605,0.9053701040759492,0.035506557434995666,0.2662414636975793
16,0.10932526350050835,0.8929276417826764,0.06684246498829202,0.8087710396547793,0.06847664231144056,0.19694416403460333,0.6895997845695415,0.9027657028502152,0.017945428698564605,0.33745397344938355
17,0.10970687403702525,0.891968458701398,0.07317817630092709,0.77508558906266,0.06566438063342232,0.22185833640202707,0.6978343851764915,0.8996933161026062,0.23284972938574794,0.356512061287685
18,0.10669418352733229,0.8951802834681284,0.08185378761185137,0.7599013504336887,0.07262171158147888,0.16769225287357672,0.7095766229606558,0.8956575793322261,0.01878903425487823,0.2762527070495189
19,0.10336613061037618,0.9024478290496236,0.08688223553594902,0.750414580306716,0.08225248307581073,0.1459436051167505,0.7192457041286641,0.8912386775006952,0.22364449738863346,0.22985725643068722
20,0.09952050463730615,0.9119740769743276,0.0896918048055551,0.7373330424383648,0.09433567873239838,0.2408787148392812,0.7247392188802705,0.8864517466746229,0.07664078474479485,0.3009789848302867
21,0.09591326396854327,0.9201467943188659,0.0921671653542456,0.7102474904475018,0.10657717940569696,0.21163891271065793,0.7276085925107391,0.8817128297681497,0.10191588086740423,0.20233830673577274
22,0.0949674993658583,0.9261302874502703,0.09083303349005989,0.6859362573452522,0.11059555813202546,0.16246563939976114,0.7290404155293555,0.8767043602367857,0.09506202595283997,0.2195198165183031
23,0.09449180346081176,0.9292628314673358,0.08988170000971629,0.6738720706060737,0.11143310362313556,0.13417061723399953,0.7307595444652834,0.8715644362718694,0.17321055631123505,0.22309280315404845
24,0.0929417907733178,0.9288561855276668,0.09102162570021718,0.6652579496827323,0.11253471845271962,0.2247488206358243,0.7344450229504857,0.8661939408239662,0.07705092335812809,0.33557538642282825
25,0.09284307127214418,0.925223071355937,0.09725509356845884,0.6787693152854419,0.1108440325963263,0.2699648948097454,0.7413510825101164,0.8604125735553629,0.09230383337257016,0.36419641103989586
26,0.08905370037306662,0.920455050967604,0.10522746238149676,0.6833993703528234,0.1162720211816078,0.3261518246312341,0.7515248289996893,0.8543237373930573,0.11720847698667479,0.40106759675144915
27,0.08171880352309462,0.9174054568600609,0.1102290279683077,0.6909117544044874,0.12952962664715637,0.27647927314107257,0.7611466284692904,0.8483617669282654,0.08713622108429328,0.30150810187320126
28,0.07286957530213703,0.9136281628215095,0.11423849761696428,0.6879698003538051,0.14547546243883622,0.3400704758803678,0.7682496633697722,0.8424170824976359,0.15183438998415957,0.31931891328579304
29,0.06568894091223249,0.9104554065291726,0.11603612570285954,0.6780573527639482,0.15892912407761717,0.2773510513450429,0.7746782632893023,0.8364383993374302,0.16772171338387498,0.2974887709294203
30,0.06250566959016043,0.9078208815390992,0.11551794993844612,0.66922005546376,0.16396324028499148,0.16929873399748568,0.779134901377908,0.8305890112677914,0.016317684518229496,0.22699796749112702
31,0.06088250299221756,0.9059718164140046,0.11320853168286586,0.6530980831342593,0.16530012454867551,0.1623767503787202,0.7806352904113107,0.8248308679628222,0.18130487986081056,0.26391086307233885
32,0.05925046541725178,0.9036581444779578,0.11633845265559381,0.6430146324759616,0.16907790638839448,0.11629998481558333,0.7825162264536317,0.8192332811342874,0.11328539087324682,0.19409289363387583
33,0.055478652111784044,0.9001861155571484,0.12655154606514674,0.6311831817357919,0.18095484362083075,0.24570190581673965,0.7899716865044479,0.8133735497393247,0.03225651626027966,0.25381317478608495
34,0.05035405853377224,0.8978686689448898,0.14008677516573761,0.6365237927997166,0.19981555663699235,0.27053381704965845,0.8029961903065566,0.8070166063649808,0.14741353363466392,0.1633557044993535
35,0.04587136405648231,0.8940064609540871,0.1554382577736063,0.6651152448973315,0.2189043610855703,0.3097499651686681,0.8177844762966084,0.8002464342719825,0.01916151249056226,0.17430225453793452
36,0.04364409360109993,0.8893518197372973,0.16767549923198213,0.7009768962274412,0.23055044230269725,0.27647512478547526,0.8319635490245085,0.7933685310696457,0.034436759163898885,0.2099005029401579
37,0.04333726352086141,0.8831940114430742,0.17523440309662444,0.730446263031888,0.23486903537624587,0.23231659269223473,0.8426408249127298,0.7865628882323379,0.03645678757835328,0.23540925771606225
38,0.043994012308717974,0.8756774279060651,0.17846785202556537,0.7485761440114097,0.23375127513553134,0.25220043938436104,0.8495795622350305,0.779806307591157,0.016600958926527114,0.3192188073715488
39,0.04526856262874711,0.8676533164791842,0.17737102678920855,0.7599146554930052,0.22859200254070086,0.2575463287018698,0.8540354857489731,0.773124242907138,0.04006357028165374,0.3165982713650172
40,0.04702981466749363,0.8596420601573007,0.17612859890373198,0.7596510011353932,0.22233591368743413,0.25106783300111585,0.8577014566270593,0.7664275203892726,0.07339987793195901,0.3291067906031402
41,0.04874605563105461,0.8527508351199614,0.17529397348738915,0.7620978350370512,0.21714809617530445,0.23132901232147385,0.8627242655069581,0.75964340539579,0.0140083346089745,0.2985485086218888
42,0.05017850008680432,0.8454989510935039,0.17831701660797222,0.7646106573968168,0.21653714914632416,0.2487656958455946,0.8697093812095769,0.7527489886612513,0.09804167791288958,0.2736902057888948
43,0.050324903883674346,0.8397730792693147,0.18302145797697247,0.7690297329626361,0.22111307620052928,0.21845494781761426,0.8785740351421655,0.745763558514816,0.01769704402336172,0.22006853207718366
44,0.05069131396033721,0.8350647530435196,0.18804447213884093,0.7740572776672466,0.22637483092993577,0.23933512834852955,0.8884360479662992,0.7386299625057561,0.11424657836719111,0.28710770579900885
45,0.050690300027924295,0.8330014962835108,0.19094485362175626,0.7745201365892341,0.23115102483798583,0.2041466714309935,0.8974429959782358,0.7313723620640216,0.13331955567434253,0.3096427805977016
46,0.04992109904369716,0.8328519241723221,0.1914812528200403,0.772681348853171,0.23728293928294708,0.2828594715825966,0.9032723078906848,0.724057181530262,0.13530047425566702,0.4054596344149485
47,0.04732089865076199,0.8349992472846701,0.19091268306944298,0.7676640220711538,0.2481138234278937,0.35595966102518556,0.9054738136468269,0.7166987794170121,0.15513696392548057,0.4797677136643736
48,0.04292963785190133,0.8407285969551177,0.18954187099993747,0.7677329772793626,0.26306615376088555,0.4244791950995047,0.9042294452771606,0.7093216125651625,0.1777919440891705,0.5291517876648152
49,0.037123817115548505,0.8487508167996987,0.18584493046983314,0.7666514365407113,0.281700686374625,0.5068177576453359,0.8987385578944805,0.7019005180217882,0.09705917444428677,0.585243164231963
50,0.02884305018876132,0.8592738582769389,0.17436738765202806,0.7566227562227169,0.3039678545548991,0.5222439489786004,0.8872677596655676,0.6944976257979107,0.08893442348679588,0.56221303184527
51,0.02281060022930268,0.8669551385355869,0.1588097547587719,0.7335972451797487,0.319332857189343,0.4911052163131594,0.8709959262361969,0.6870839167196613,0.04749972614741682,0.5163257704587496
52,0.018859352273280925,0.8719517953810552,0.14118817474274648,0.7083747282000981,0.3287128754363029,0.477145525837423,0.8533875934346496,0.6796570426030588,0.1599996738079532,0.49799081396841227
53,0.01641070630166425,0.8737676211288912,0.12363214179388334,0.6764609386637993,0.3339088155463862,0.40445240096510016,0.8368645145608268,0.6722840482001827,0.1465739607117484,0.4030334000895587
54,0.015185678956929525,0.8730485064689403,0.10626557433839282,0.6353053996774769,0.33516304089678983,0.3323141824391766,0.8223190102905203,0.664988428511204,0.022837794250091033,0.32797388586947035
55,0.01487056157707587,0.8688013117639618,0.09006110657420054,0.57979108166877,0.3348643548614204,0.3275970702305324,0.8095571345029413,0.6577700376846838,0.04561158867325886,0.349646076016457
56,0.014712109373423453,0.8610736705705043,0.07690271535296563,0.5222897171392374,0.33528734428945967,0.3248638257903113,0.7999483245539999,0.6505969079052804,0.030936146263112013,0.389148423555386
57,0.014026583114601993,0.8492180219442663,0.06875904903387228,0.46864576391550805,0.33858509014457794,0.36972685078589274,0.7953130224705846,0.6434386712974421,0.1376922496012116,0.433980547493547
58,0.011580385916730837,0.8340949972772626,0.06553193025310658,0.42418050511484745,0.3502384917827575,0.4769739733464854,0.7961094634809903,0.6363063749981431,0.04082211539901135,0.5018802249563428
59,0.007970561655069337,0.8182094409503442,0.06224400508549079,0.39743282053119194,0.3682349091948311,0.5163019427734632,0.7999150967417247,0.6291960510748654,0.05460580505927471,0.4724015213045082
60,0.005080640699272267,0.8040913343449958,0.05729923525150354,0.39404491555418114,0.3863482769016063,0.48968914455464485,0.802711205550008,0.6221061272270432,0.04120579908700074,0.410125196864777
61,0.004438844822125741,0.7903803977391102,0.05108470238123391,0.4006388206099215,0.3997986377404336,0.4602293223470087,0.802326136064399,0.6150126438614667,0.2209477632346072,0.4043250213506249
62,0.0040909688887142545,0.7809271753619644,0.042618401809238586,0.4128372311727901,0.40910879218968155,0.3259269317016165,0.7986202448837756,0.6080082287348523,0.09518706848157435,0.33643628231837613
63,0.004640693639891615,0.7747387278049077,0.03146635336237946,0.4177314173885755,0.4115812256383651,0.2513704718504852,0.79197308411517,0.601152649431405,0.16458839373691658,0.30028033266119747
64,0.005272334761339433,0.7719324650387458,0.022774727238626728,0.4212509369037381,0.41230052045440535,0.1684050111194145,0.7841746713811882,0.5944605574180148,0.1677005039168696,0.24207128468673933
65,0.0056056783847114044,0.7705508690941771,0.018540005966950643,0.4242211279668276,0.4145799850347404,0.1273815937336974,0.7783539591978821,0.5878549992881048,0.017616827860924507,0.22295418646889587
66,0.005146259443439484,0.772402753303057,0.018748383355564776,0.4289174309321924,0.41819842619958114,0.13094522172512743,0.7757549682001419,0.5813280518681542,0.095294580709297,0.1763385997095876
67,0.0025951213099911596,0.7770848781974046,0.0158827206561442,0.43189819792786094,0.43044295294140544,0.16917916543982753,0.7729919825481547,0.5749276653385711,0.0301422625758552,0.22756057234933802
68,0.0007460085793822979,0.7825779316225328,0.012727118688118922,0.42686110504127694,0.44043465548757665,0.19192562595157345,0.7680179091027024,0.5686708613700011,0.06126131228204829,0.27428828188073506
69,8.86198229650639e-05,0.7879798056403978,0.009052758766869954,0.41579820600747025,0.4455560071857068,0.16398147755770442,0.7620666572672701,0.562578604019014,0.12546900497775715,0.27174302130160977
70,0.0,0.7921176581807882,0.0034981969801362936,0.40765096231666376,0.448419512454736,0.10443376149861465,0.7547930373325766,0.5566664275522454,0.2401700646165267,0.1966765764055671
71,0.00040750575130573134,0.7936360356834583,0.0,0.41095780073038657,0.45004257355038363,0.018887063322380236,0.7474004291140257,0.5509050371238315,0.09403544779231092,0.11062180671903833
72,0.0016344806784332774,0.7935028545402396,0.0005779101845652146,0.4316830831523662,0.4491300996415242,0.059891729703017385,0.7421404783636526,0.5452608547563947,0.24580542602600142,0.11087616244172045
73,0.003253321543445922,0.7923672760477897,0.009138913469697096,0.47304209587451845,0.4459371089194549,0.1697155784843157,0.7425135929203331,0.539726243816433,0.24055822930411946,0.14562913145602394
74,0.004251976462146033,0.791354967436335,0.02385222011004579,0.5263153524892293,0.44529662997435776,0.2804883856177728,0.7506748545285665,0.5342884907680576,0.031120888786808024,0.2454113676222577
75,0.004333461975679279,0.7895726724490526,0.038567698407067676,0.580496685347748,0.45105544543521553,0.31024264968801146,0.7621331741317148,0.5288860569248534,0.10668533612270878,0.32374913775112113
76,0.0048703933687931035,0.7882759615910431,0.05100933203303501,0.64541070924437,0.4552124609233339,0.26567432928259943,0.7725314830969707,0.5235254849384977,0.21040198886002004,0.29883748634940516
77,0.0063284032040291744,0.7856058397276232,0.05850090067916933,0.6983891797101629,0.45815017420428183,0.19382996316465412,0.7799340004324198,0.5182012578010665,0.11741454806587086,0.2176564789463306
78,0.007936870660316104,0.7814491949815633,0.06261605145852753,0.7402583040499552,0.46046041722731457,0.1391619516983293,0.7842746090080931,0.5129632723042287,0.01916414103494301,0.10073281720616735
79,0.009589230715538268,0.7741908167054873,0.06356034322659454,0.7647110621176806,0.4634459363507266,0.164573099668705,0.7868503783425914,0.5078283911432356,0.17922351583300988,0.09682602065045731
80,0.01079531149724011,0.7638307845775277,0.061816641534386645,0.7730980745566608,0.46798481523371105,0.2652104303069941,0.7878187516931584,0.5028294919402598,0.05671157856554482,0.26591382813337894
81,0.011696963034262505,0.7518303760806719,0.05812196045133174,0.7660416537982276,0.47219658228572586,0.3071036794467882,0.7879376935058833,0.4979734136640979,0.01477828753794184,0.3434278928593954
82,0.012284657888195615,0.7393783226439781,0.053335111642402226,0.7490136282769243,0.4766268392071956,0.3143360458030315,0.787221610495812,0.4932584666604633,0.03351603264796398,0.36528093776316606
83,0.01239815256430369,0.7277878453571387,0.04659650719087861,0.719112024274959,0.4780576788084906,0.30445495081335117,0.7849721733933692,0.48870051217564003,0.03819347795977827,0.4110288234297057
84,0.012206093518828799,0.7188392011188813,0.03486129961906961,0.6828240758742259,0.47579765876819513,0.3277134645013676,0.7796023607990602,0.4842903565762706,0.06129273482941816,0.4345843541088258
85,0.011770896292643588,0.7141872012617836,0.01949190315392006,0.6312861454204785,0.4704732544863408,0.3422320256689822,0.7700795165270213,0.48000852695597995,0.14978870264765093,0.38371674763779656
86,0.011190813191377713,0.7161883450659039,0.7432500323910266,0.579665939698464,0.4625003294022667,0.40057491589597854,0.7583111021485169,0.4758401740131201,0.023299138180832228,0.36176387854581465
87,0.010364880723619841,0.7213130128944157,0.7595517349276255,0.5191284676213643,0.4579646957893317,0.4169959949353178,0.7461161479513354,0.4717728359908052,0.028610300544812117,0.3629614204899355
88,0.00829745588866489,0.728329951518958,0.753447965788782,0.4600488580575788,0.46254252129777684,0.41425154926270646,0.7342337324391501,0.46775213331673016,0.14227248793760633,0.35947490825457734
89,0.00651926041431624,0.7315098687327022,0.7389836788606593,0.4099269985396527,0.47525756123988006,0.3752210431745898,0.7234948245852127,0.4636897109372575,0.05853656648031362,0.4008865559220359
90,0.006360456943089648,0.7324133503513056,0.7228680641982242,0.37128627007033954,0.48605915450643583,0.364997806466362,0.712721460335056,0.45955876906276977,0.014273888605792576,0.4088332989395947
91,0.007946709753966724,0.731294388882464,0.7053632731057567,0.34704960582954864,0.4919603787739813,0.3768224336222854,0.7002286915819836,0.45536425315307794,0.029343828776641524,0.4175078674038544
92,0.011636585917753866,0.7248860292634248,0.6854924482061836,0.33601509052746736,0.4956897606478481,0.40872459765550895,0.6853093137471595,0.4510925668790383,0.08126345553337026,0.4333291736866606
93,0.016726132795119968,0.7130476103821154,0.08166802317591537,0.3394920323992147,0.49813626343241957,0.4599403425080038,0.6679631955078154,0.4467073226364473,0.17470029744638652,0.40492529531027943
94,0.021929955547805847,0.6938731556720515,0.10095091130585757,0.3534440585550521,0.5056090930413097,0.5821213030972827,0.6489996074666172,0.4421928713327602,0.022360881403075378,0.3715176937109433
95,0.024701497655001164,0.6722963432282,0.11630890426319977,0.3791143294550718,0.5235126547440747,0.6237206648420194,0.6325959570224503,0.4375733793104129,0.06614632876648423,0.28484339228976546
96,0.026660594997209273,0.6503209216201113,0.13324936033558282,0.3852152025596437,0.5541225446012317,0.5985046947496991,0.6199712578737356,0.43290573069601485,0.2554111718698145,0.30497207953565797
97,0.029448292165582486,0.6328952199620709,0.15115083455296272,0.3959673842251078,0.5763652865131041,0.44376826256027463,0.6065599374711453,0.428191867951314,0.01579082685873236,0.23023543216043285
98,0.03320116600478599,0.6203695706957455,0.17416316875491586,0.3917568164268329,0.5907974645372334,0.3956209925200093,0.5895036936735438,0.42349381350491994,0.05981646466020835,0.30979436770195723
99,0.03788347225002858,0.6133591347621784,0.19755993239348904,0.3741821847839263,0.5972195328707218,0.406569088840042,0.5694507792100728,0.4188460900400935,0.01163022572843166,0.3380777259526749
100,0.04309390265532823,0.6075862591069079,0.21801704914827671,0.35782202744637,0.6027566881208758,0.43595416976007145,0.5484073945502008,0.41420732663653986,0.11105779239995106,0.4213586744830669
