Frame,Center of Mass distance,Symmetry,Grounding,Arm fold,Leg fold,Kinetic Energy,Potential energy,Bone length coherence,Torque,Center velocity
1,0.21646049121716468,0.8937695931698282,0.8028778428924941,0.5205361017994384,0.19197581264052768,0.06236065668869273,0.7749433421240374,0.9999884253061178,0.22321171032782497,0.046361729014460125
2,0.21281307625591497,0.8924171740148551,0.7975069994850382,0.5211952618004628,0.19757521735265565,0.06236065668869273,0.7749433421240374,0.9847498969161752,0.22321171032782497,0.046361729014460125
3,0.2078953497352675,0.8905218732187036,0.7905280560233291,0.5265055869070193,0.2030701460924287,0.11200093813643479,0.769482108806935,0.9631804314771294,0.10632527069970164,0.08881385411768376
4,0.20360857714422473,0.8879374116174432,0.7837107633585075,0.5368746885016973,0.20715398833311227,0.14178646450161342,0.7625294195158223,0.9360109600658891,0.05099377608293856,0.13510721716919877
5,0.1995478133584646,0.8856760393857601,0.7779462740578829,0.5512982939744979,0.2099872401601139,0.15781053755963798,0.7555435383254102,0.904816238520296,0.05597493566509838,0.14002189669549897
6,0.19468529857484973,0.8841749251384057,0.7713566861493468,0.5679049734574113,0.21493160173512046,0.15131528280871717,0.7492949010142611,0.8726533518945541,0.09967187455777098,0.11769502008455374
7,0.19002645083851705,0.8823824151283758,0.7642874727823576,0.5803397549949594,0.22034886232287493,0.1356875910203711,0.742206445527105,0.8422379117247318,0.1741555674148019,0.10810611407957861
8,0.1885036367939061,0.8811232112040704,0.7585544555731112,0.587447508806679,0.22208738988471716,0.10122945237809912,0.7350013705635481,0.8154922751865248,0.0845804494395764,0.1000256896100294
9,0.18585660569539006,0.879693191371209,0.753064231295706,0.5943520077444248,0.22459350604102446,0.09372409135082098,0.7288100338077096,0.7922040288318186,0.2551812634007633,0.09694943232783379
10,0.1848318036493981,0.8794971984674345,0.7507392701371932,0.5985503307627664,0.2253751801883312,0.04670086392613768,0.7244422347485568,0.7730857217307299,0.12665067847941386,0.0476670429812375
11,0.18373060649828798,0.8793688501488044,0.7501138595015682,0.6032311568907383,0.2259687344041116,0.026639134307898518,0.7223323353124798,0.7575175283978536,0.1275769751742298,0.027932319001048984
12,0.18404130327665771,0.8797627923600903,0.7499016460400325,0.6034840913053243,0.22527250863867224,0.015529652231797903,0.7210486865981869,0.7458131217060168,0.06422177505956235,0.017315316883160018
13,0.18508130764321407,0.8804308355643314,0.7509902406298317,0.6025981842038358,0.22292306805690476,0.03340151634352696,0.7201848590354151,0.7381759702740751,0.07125395449515758,0.022774769511250126
14,0.1870408693425365,0.881193589877128,0.75420641194411,0.5991456085019584,0.21967203456251358,0.049753128277882724,0.7215725503544892,0.7334749148822828,0.04223159002201785,0.029727875742508122
15,0.18915902721487673,0.8819873430429743,0.755790094492884,0.5931412131401289,0.21708657815595145,0.051900427493057975,0.7234938260727027,0.7316432758295648,0.08157974423429391,0.04645795357400724
16,0.1905852823646853,0.8818669579224552,0.7573251147960683,0.5866388557682362,0.21469706247044762,0.03831562080391716,0.724612246426107,0.7314795673883216,0.0939584218867145,0.02246874876926817
17,0.19151173753428147,0.8814001543868405,0.7574469143811832,0.5778418018170808,0.21336739817916534,0.025720687894798283,0.7254201911296154,0.7323982813277436,0.11699789238152648,0.01126769404450323
18,0.19137327086752348,0.8805961392182851,0.7574103457114206,0.5691057672318479,0.2136184172777472,0.006914553387905184,0.7255492429379591,0.7332583650894523,0.045049099800460235,0.007967477625653589
19,0.1902539068188423,0.8791939011579604,0.7557704856235073,0.5653294572335449,0.21507088165997568,0.023906952600887973,0.7247292843859304,0.7334946285484516,0.04574653514883357,0.031247160233581702
20,0.18865023367016126,0.8780654767701425,0.7548531591028012,0.5636801964360676,0.21677222118872141,0.025931386365330582,0.7234027649640263,0.7330658354073448,0.04556400818656463,0.041991776310106026
21,0.1873309277390639,0.8774618293580071,0.7533205863090102,0.5636318177396966,0.21843569707592422,0.019907634386751756,0.7223905445502192,0.7321504199355251,0.032418623423082715,0.03261577278961395
22,0.18647987912559938,0.8765795581379067,0.752162827983172,0.5644666561641263,0.21956361576958383,0.027299307758070164,0.7211868871699076,0.7306543974028941,0.06570855595290889,0.04891406208037744
23,0.18583952565993453,0.8760885261947898,0.7509961434466043,0.565098812897636,0.2206628636522871,0.017247828533781595,0.7203236124668002,0.7288266328214055,0.033184876432974166,0.031785924745266037
24,0.18568833076311583,0.8754259002041195,0.749570886741164,0.5682162891728266,0.22100610470755253,0.02218332159033144,0.7193147957604147,0.7267763434537675,0.07955189803641777,0.04072927617883832
25,0.18521974465591157,0.8751243472512267,0.7492252696205652,0.5719838319341907,0.22170196779199766,0.01332544232254459,0.7186074021824362,0.7246565381158404,0.06828716109810357,0.02588671251370267
26,0.18512500188616937,0.8747240127827935,0.7492901142223805,0.5741947284489444,0.2217065086853066,0.007194728943330134,0.7189733509352402,0.7224712254449255,0.03184356419964205,0.01848501084565344
27,0.18527258817607792,0.8741229944710887,0.7493954723032162,0.5745486882326012,0.2212805915164019,0.008179150715014445,0.7194731102291233,0.7203962979496045,0.039930972209504846,0.014469773683591858
28,0.1859359076130174,0.8736137395552939,0.7499627185979588,0.573562199984724,0.2204339749645208,0.010607059505910107,0.7197356634370765,0.7183393181683019,0.03241350750559263,0.01820966170741553
29,0.18646934246541105,0.8725556153611113,0.750188177404448,0.5713776222294568,0.21951098674199396,0.015879888192053476,0.7201560876818631,0.7161088758459915,0.04068667196341957,0.029982256632262175
30,0.18764377195546753,0.8712758569076042,0.7502083045699315,0.5662814790069985,0.21783594851337168,0.01707619723425504,0.7210623850650565,0.7137356878093275,0.040840569355263034,0.031095757641059058
31,0.1889514228500119,0.869862111030135,0.7502887556434091,0.5618799035254392,0.21621576626672653,0.019228567943735505,0.7221884628287227,0.7111260171289964,0.03424877597242805,0.02965169192339069
32,0.18781484417637953,0.868405430050221,0.7504223320678413,0.5607794079963608,0.21798066272645106,0.02847775623970716,0.7235357938209798,0.7078803918490212,0.05088092451819939,0.01603209552973535
33,0.18678362996940626,0.8669580040716347,0.7499777203908301,0.5623121068670287,0.22024396278560543,0.04018796417743043,0.7243579227704112,0.7040002597503183,0.03340524775730237,0.04605482929077893
34,0.1857581049397019,0.8649751863845102,0.7489909709860312,0.5635395330721711,0.22239413193156862,0.04807023643268189,0.7238423175754851,0.6995909833498714,0.029597139159709494,0.06616846112547582
35,0.1861571470830334,0.863310147569993,0.7476121881648403,0.562845588981375,0.22261838563133748,0.034527608505989835,0.7228707907788601,0.694964394203179,0.10055859742599567,0.054849762071647004
36,0.18759103723055745,0.8619191708256354,0.7478856181554432,0.5590975688067712,0.22137408553010005,0.02206784221084815,0.7231465589117515,0.6902449472462054,0.031165681105234124,0.03957926148911345
37,0.19200135811428834,0.8604198432780564,0.7484500426158263,0.5517823200314131,0.21690267212352954,0.034613138485356444,0.7251672705001029,0.6851162828958782,0.03189874865754076,0.038853505111167426
38,0.1975202105807849,0.8598087358609886,0.7513577125696035,0.5432052977132876,0.2109803566828688,0.04905368471245678,0.7290695768812604,0.6794826234551951,0.11166683517358351,0.04566783192370324
39,0.2055862690429726,0.8598840951255244,0.7563293240036274,0.5350716125562874,0.20279083720655977,0.08547429806749735,0.7357019698356743,0.6728680231898456,0.08479636394526688,0.09931348822454206
40,0.21440644900375086,0.8604951134003128,0.7627758045982106,0.5229212964409384,0.19415008017566174,0.11133494496599469,0.7444365132890324,0.665251640866757,0.029605521102468557,0.1428843948021436
41,0.2229947253531731,0.8607964666198722,0.7694106858276415,0.5117883160550815,0.18580797038449523,0.11337853156835195,0.754190853975566,0.6564845394765968,0.116165234999675,0.14220567841474704
42,0.22841992661031604,0.8611489182140466,0.7743145444428061,0.5043148250719394,0.18094913117500575,0.09072577837039218,0.762331319099803,0.6468030390706443,0.1440909192857807,0.11942388342273465
43,0.2300025708387037,0.8609620724499547,0.7767453819782616,0.500910919766526,0.1803366646151863,0.06414764302424503,0.7664344748458033,0.6365626324991844,0.17969540356542418,0.0749111118814489
44,0.22720604939382044,0.8610206799479083,0.7768227520693263,0.4998108372502686,0.1839202114700138,0.02782153174573695,0.767068903826092,0.6266592525506365,0.03128231601019384,0.02255764474307099
45,0.22344642140000467,0.8609363097935826,0.7740596579351381,0.5003109405983983,0.1880123933260003,0.034999384620088766,0.7644988108957688,0.6176450456401522,0.10172317039283597,0.02108398434681602
46,0.21847302170744448,0.8609031553473069,0.7695663762193001,0.5013337668275121,0.1926854247850702,0.06838987122092896,0.7592253985553012,0.6099922536758323,0.046316239009318916,0.06509969792581079
47,0.21221959092468815,0.8613463019985356,0.7651439283047347,0.5058082937814751,0.19892513359786693,0.0723232545915098,0.7530319656899858,0.6038095118931541,0.0789152897030757,0.065673652277367
48,0.20533995671357322,0.8625326571463912,0.7606959111155636,0.5147843261418343,0.2065731443525036,0.0653918936448432,0.7466786513746445,0.5988173898549183,0.08221215968720133,0.04352807741178459
49,0.19973679286060286,0.8641819409170812,0.760576328686017,0.5244127638852086,0.2126758534477653,0.050072531025306406,0.7425887740367731,0.5947152772733935,0.06888266619901158,0.038984318446876574
50,0.1972689653545136,0.8659974986081026,0.7613123955404589,0.5353388457868348,0.21502063171692243,0.035200503658179005,0.7415630403683353,0.5912224357914884,0.031162418290637817,0.03768603176552207
51,0.19584410738674587,0.867814604390057,0.7638797465116187,0.5423456520234065,0.21594100771218847,0.03422791930102617,0.7424980796110685,0.5881763432592975,0.0869766328971446,0.03806091073868765
52,0.19486330519028477,0.869903266337959,0.7652133799830554,0.549128540317095,0.2173106128595413,0.026837028399530772,0.7438168793023082,0.5856347363013799,0.10149893512282067,0.04495813262418367
53,0.19316192257733747,0.8709142323647329,0.7649440387728512,0.5507558747890903,0.21978556591801587,0.01346069858445988,0.7436739194480205,0.5833535417094857,0.029883585137906444,0.020067354022955827
54,0.19209071798832217,0.8713255194651035,0.7634456735221139,0.5517323379564684,0.22118847905445588,0.016787947263162805,0.7418466224701963,0.5813653270122475,0.057177087588112116,0.02063222067621584
55,0.18993229339514395,0.871424656013595,0.7628358117696951,0.5536042742955792,0.22385195915410275,0.022430961273175135,0.7398344712380751,0.5794974357808982,0.06089580401280288,0.04678878697461857
56,0.1880304350815622,0.8718561662948436,0.7621126735236967,0.5560539331904546,0.22611058493059372,0.010364967739041811,0.7386077655891725,0.5778445260330393,0.07280683124060376,0.017665027156665087
57,0.1871550949134224,0.8707568004461022,0.760336818296186,0.5573332084411704,0.22694098628184356,0.030912741432320343,0.7371607479305067,0.5762077266677719,0.14213501247262594,0.04911491300849743
58,0.1874387763995178,0.8704993234784046,0.7600289504087042,0.5577604479077997,0.22657719261400738,0.005094020543189717,0.7363161930246265,0.5745411612995979,0.03347420786926021,0.01275903834592234
59,0.18819771994570766,0.8698141408554237,0.7594617904966461,0.55729850023084,0.22612084789903464,0.01051750616133946,0.7360748332873924,0.5727001426987891,0.029738627161680346,0.011939603682738387
60,0.18753474967374148,0.8690363673740965,0.7601010511560159,0.5579148124688614,0.22719181070031877,0.02181788018625037,0.7365646499547823,0.5706427967158695,0.03411791527416709,0.019557643448085422
61,0.1866413125457353,0.8677938815910416,0.7587574836758642,0.5596529950286495,0.22884477887451685,0.02771470505502392,0.7366270849675122,0.568348139923285,0.037929978723299645,0.03127709092507795
62,0.184607992868999,0.8661566366109079,0.7564909748005151,0.560605030246663,0.2314691066186502,0.03900464348454978,0.7347629405758175,0.565801160510206,0.03622361961208543,0.046535515789913245
63,0.18300814905324267,0.8643724841504175,0.7539397198028965,0.5613245602864644,0.23388230055716683,0.04108560224364575,0.7323345885383836,0.5629692932420054,0.05960340080239151,0.05867097198061072
64,0.18214508901085225,0.8630608446420275,0.7517741634914747,0.5618506048698789,0.23511987978753968,0.030509557734542597,0.7302283839067891,0.5600396785350018,0.09510014204399356,0.04909538022104321
65,0.1819211618001301,0.8619715694107883,0.7509363090404889,0.560474596327294,0.23539137240722652,0.020060352088979768,0.7292128921346892,0.5570203040393026,0.037915109634483204,0.039809599907281994
66,0.18174242312321337,0.8602551821436909,0.749207733935616,0.5605894658472266,0.23575622453993053,0.03305859289007663,0.7282122796846311,0.553834155373546,0.05515804259280395,0.04922985613934325
67,0.18100250901671455,0.8587200536212867,0.7476246272714053,0.5600503682526847,0.23682285668857903,0.028466932820537156,0.7264694811368745,0.5505062344753631,0.07375142387113477,0.04250491902400929
68,0.18115420458509413,0.8574797099760945,0.7472552837068029,0.5593266628107048,0.23685302654341156,0.023314627247064443,0.7255094781670215,0.5470933424102787,0.043522848243964254,0.03822158839965249
69,0.18122349730131174,0.8568617813784954,0.7468243204939393,0.5584077462544627,0.2368256540215318,0.013526820561268707,0.7253643731758016,0.5437179152190686,0.03817870044318553,0.020609879583903815
70,0.18102312395374126,0.8562389817938675,0.7463439175913259,0.5568623953157635,0.23694139535049216,0.013078342662183672,0.7252430281723469,0.5404559341401899,0.053807649777184205,0.01596424560664509
71,0.18095183646777302,0.8554843886908381,0.746516337429545,0.5562502077670333,0.2368670418816911,0.012091569896466413,0.7252701516526523,0.5372774238522257,0.04909678629569521,0.0164045607823803
72,0.1806047554793344,0.8549409969113049,0.7472906718132111,0.5571673889347024,0.2368530298308501,0.013072023794328758,0.7257188788421526,0.5342193720884963,0.029352886164287592,0.017432415925282232
73,0.18067263154086305,0.8544174220901839,0.7476784148896072,0.5567343879070129,0.236427007599068,0.015504719807847386,0.7258188803347339,0.53135524069704,0.03172229745849782,0.00893577526128608
74,0.1815438583624444,0.8540081301721455,0.7485749807718105,0.5567573510432542,0.23475524253655863,0.028301401298054793,0.7255359958653318,0.5288328007523156,0.030736122032145426,0.0038382051014810535
75,0.18251194216148295,0.853700940408024,0.7493484801228598,0.5549363051948943,0.23241251037928154,0.04371123637941033,0.7250957477763157,0.5268161833144398,0.047300412761238905,0.015718892704990134
76,0.18354366841965103,0.85318601571642,0.7498010102126149,0.5554988629422519,0.22965617137488448,0.04999164599232589,0.7238645151392384,0.525417066196901,0.050129702428481845,0.035058680534733155
77,0.18376514400353666,0.8514939222664771,0.7490570825338854,0.5540979257657748,0.22746726161721117,0.05255303628613217,0.7210436408772175,0.5247255718415413,0.11042089291849864,0.030956936213485567
78,0.1817162991830977,0.8497918958061007,0.7488460496357042,0.5556795760339011,0.22715800655885995,0.0525130505081634,0.7180268100197733,0.5248697625947735,0.030893105931632418,0.06184736020991472
79,0.1797212519392698,0.8478618119769059,0.7478352858446204,0.5563490459998763,0.22702044312410657,0.053128044404993115,0.7148802122249355,0.5258523059570923,0.03187212718098769,0.06152593438299898
80,0.17717180596715443,0.8454735436195733,0.7463959199673819,0.5568090052866288,0.22731420272372724,0.05020948544920086,0.7111452848862829,0.5275770261310387,0.06861270202070378,0.06433728085700058
81,0.17431071256086747,0.8438295893258927,0.7458231163866044,0.5557284159043644,0.2281514824351731,0.04056954290255024,0.7083757764888919,0.5299325512618294,0.06352799240202822,0.04645900347732857
82,0.1732033114703228,0.8428859543857448,0.7460929758929155,0.5581229540048539,0.22789828906134657,0.023734586646784638,0.7068576159851405,0.5326670449246868,0.03215311914472987,0.016233954623362343
83,0.17260322949895304,0.8426150062554927,0.7458313803300862,0.5610839609021043,0.22745572602899589,0.022731896837413418,0.7058091398026102,0.53573187965704,0.04567119628566807,0.0225979301873564
84,0.17174611642629894,0.8431633234454564,0.7462373501529074,0.5653718115514159,0.22757296090551998,0.020815958716709833,0.7049800855682717,0.5390454218734028,0.04302097035864206,0.024852985492536478
85,0.1720453940922366,0.8442688273692205,0.7467595334805804,0.5707630894921106,0.22694179458182942,0.017421122437812617,0.7046049736174698,0.5425049961541576,0.030896090466270697,0.021572253326628675
86,0.1716696722488214,0.8452997811045535,0.7474490688623165,0.576851911319723,0.2272214687787363,0.02078138328597767,0.7044401294102555,0.5460174433394042,0.06116043638060783,0.02598912821648437
87,0.17164172950900916,0.8466739801382287,0.747454194234929,0.5817023719947426,0.22695194863811996,0.02021478114447686,0.7041826792226423,0.549584069993436,0.03233327155883502,0.024986314039377032
88,0.1718206501260306,0.8480648379704917,0.7478643680150614,0.5861563112129032,0.2268120916587558,0.02169681254136266,0.7039342142262481,0.5530603689765274,0.06538355335202495,0.025078034483570988
89,0.1718875738589259,0.849677410959821,0.7473301487000178,0.5908121682807027,0.22728102213355816,0.0156602407060206,0.7033726762056467,0.5564283334031578,0.03177303695048662,0.01850494612196055
90,0.17218239927579368,0.8509918668912337,0.7484380066284556,0.5913491828907815,0.22740277574983947,0.016537005922700142,0.7033711912911583,0.5596152417120425,0.08794156511218532,0.019796106320457914
91,0.17284442518298632,0.851949677149321,0.7486263208806189,0.5898530214372,0.22701400081503878,0.012573022460846536,0.7044595088337838,0.5626711842954065,0.029246783035585276,0.005631202007219218
92,0.17326626686238822,0.8526987233763776,0.7483188273181033,0.5872970547168463,0.2266391218361513,0.016030802199766183,0.7051570069458152,0.5656625193138204,0.06276640299413079,0.004421785474450104
93,0.17394711206879043,0.8529709547177922,0.7480619540086922,0.5846628359017181,0.22636079910823617,0.013624985985336943,0.70582336411261,0.5684554661907846,0.02974415668730278,0.0037982770721558512
94,0.173345787872173,0.8530434467586004,0.7478050519050529,0.5838515313537295,0.22764971766042427,0.015758770544793462,0.70665993458114,0.5710155336494462,0.02920059844458127,0.014185825983063957
95,0.17134513644620186,0.852778805797028,0.7464019667552954,0.5849618130811272,0.23066820994702075,0.023614987016564504,0.7063497404242497,0.573394493032869,0.05002756511078451,0.02288665023777885
96,0.17029823002614378,0.852738574555079,0.7452157021435791,0.5838188939918236,0.23304301714204959,0.022283135904659367,0.7051067633561108,0.5756214556379461,0.049721530509691636,0.023185374039630984
97,0.16955895574327284,0.8527743265565935,0.7442961872615329,0.583338540490843,0.23462109355452226,0.019006564088805432,0.7039783362954916,0.5776363523024662,0.059914674863236546,0.024080234610807796
98,0.168510082225964,0.853229861579914,0.7435378912629518,0.5833892932463578,0.23633837528021914,0.01119590175113432,0.7032603334772651,0.57949849620469,0.051992886575100705,0.011049116920786408
99,0.16850650825662752,0.8537407050440871,0.7435160652380068,0.5849711256665455,0.2364854528240769,0.005386360157283745,0.703199009488614,0.5812738860581745,0.055415999307287335,0.005693830294503474
