Frame,Center of Mass distance,Symmetry,Grounding,Arm fold,Leg fold,Kinetic Energy,Potential energy,Bone length coherence,Torque,Center velocity
1,0.6866871736665244,0.8901105621767305,0.02284803056578053,0.2870734387592581,0.012818564920320992,0.13598796639408917,0.24840118424086208,0.8169748089693163,0.013415584641615231,0.16469346320453637
2,0.6858727778800426,0.8879993372688644,0.020275777109759318,0.2680738495519966,0.01228832618720725,0.13598796639408917,0.24840118424086208,0.8268114679133097,0.013415584641615231,0.16469346320453637
3,0.6863404058731186,0.8857219638976168,0.016152377683027633,0.24924131007105246,0.01186583871833122,0.13644605930751133,0.24776526557049258,0.8365697684253353,0.06786271292064484,0.16859266571073714
4,0.6878529157390993,0.8836744407371331,0.011847647381526737,0.23438036773036178,0.01132437083563345,0.11845425814875998,0.2462161250829567,0.8457646987211147,0.07984492809017728,0.14530165903493553
5,0.6918650250731311,0.8809886574991005,0.006922249622761576,0.22226865296475548,0.01140129530547489,0.09940506438499902,0.24421785421360964,0.8539350209187772,0.10393547980548522,0.1225784469995533
6,0.6970773337727991,0.8779382574130936,0.0023382906810139616,0.21437531009943814,0.012330251863648117,0.0729658216947555,0.24199039432955805,0.8611920427229073,0.12723437822857947,0.08602756937292382
7,0.7018178091736861,0.8751786012196642,0.000720777464275988,0.21204566631428098,0.013204788197257997,0.04001364267971927,0.2408720497501716,0.8673180095518297,0.0877894747836536,0.05153801629635711
8,0.7061328548460049,0.8727000925889898,0.0,0.21470845621908702,0.013555631697012202,0.0171137127000688,0.2407843580779982,0.8723589764460372,0.018694319065825565,0.011169091613817466
9,0.7094837248656171,0.8707261631459142,0.0009073107532026674,0.22008104398491118,0.012745982746394791,0.02092041263518149,0.2411481392385214,0.8765124191632027,0.017410389257051993,0.023902310349880263
10,0.7114829228974433,0.8688205690878955,0.00167298942752001,0.22301438933637358,0.012380730682812344,0.02102093975840888,0.2418973206231468,0.8802142110720119,0.024559133435268058,0.026374467747811412
11,0.7127426699401216,0.8670806349222447,0.0018753244416915543,0.22250852902926557,0.013142364808172876,0.03370768857629475,0.24232851038320272,0.8833480721110675,0.021053487854849336,0.03354001296463354
12,0.7135250931293098,0.866072581032948,0.0011102292156908724,0.21882836820764887,0.014092605911529107,0.04887985186688206,0.24152579354103754,0.8862698794538266,0.08821709450161497,0.01069531517104428
13,0.7159269194541529,0.8650240220904776,0.009103228051378087,0.21206750252915704,0.015043950665271076,0.08382659305962857,0.2376162977994035,0.8890981279340316,0.039795005125594356,0.03696452874717192
14,0.7192245231509938,0.8637805470356499,0.019749263624606692,0.2044473363411732,0.019866410004091624,0.10536144956341484,0.2306458012940956,0.8919229495476009,0.032617916158318376,0.049819759324373825
15,0.723550609306093,0.8620778289020785,0.031723057394279094,0.19912323104136723,0.027256044090452444,0.10873218863630997,0.22159590228054696,0.8946366105054839,0.08854441382351534,0.023874674769755532
16,0.726560818856266,0.8607304610685609,0.04189085983056418,0.19407883418913452,0.03406703832816791,0.09214216443399309,0.21193571016347168,0.8971691573164432,0.08829423438039015,0.02396884266353951
17,0.7257577681258952,0.8604409413689835,0.050099661612400634,0.18731004817908045,0.03917460699868221,0.07855084027350674,0.20288676455605517,0.8997415154933261,0.06534376241364254,0.06476864567114739
18,0.7243896915635664,0.8596022126337064,0.0552684302502804,0.1791633388243316,0.04237891418094103,0.059669801147994854,0.19526263137365765,0.9023792825497253,0.04814201107873497,0.07669100289400384
19,0.7245043618883968,0.8581394063249869,0.058596127724729774,0.16889104558813217,0.044941161925613426,0.040031807584744,0.19017947435460153,0.9051447603454263,0.02979065661630244,0.055368762574326554
20,0.7277051879461685,0.8555669013248229,0.06053152303269756,0.16211430479775782,0.04551798975543713,0.030989468416652476,0.18749365111045302,0.9079952673074727,0.032608530707157114,0.03941372579252423
21,0.7325874911111306,0.8523250523874841,0.06092958064678417,0.1634441410319293,0.04445660232542351,0.04026430420331744,0.18676309917143757,0.9108651972764836,0.06960420232370639,0.03577738147847634
22,0.7377700826609543,0.8489326554510895,0.05976691401362752,0.16360958133425405,0.041344033267400764,0.06378906598384942,0.1874217957977781,0.9136139298224785,0.08771662494607795,0.050673525138172026
23,0.7435197790472015,0.8450959857558452,0.05780487456586252,0.16309575671952123,0.0368382528045938,0.09527692064588483,0.18889570251392426,0.9162684057402356,0.13370011650513508,0.0823815315263377
24,0.7496503578866591,0.8413324615293515,0.05726576832120735,0.16034438213006103,0.03168744650137033,0.14056719484144997,0.18949134329935352,0.9189422283999743,0.08892614190617022,0.1426786166028691
25,0.7577690195187395,0.8370436316714214,0.058268594425927446,0.1571285101650758,0.029086338773174375,0.17199548717908764,0.18822633208993766,0.9216421555645178,0.08394145349133351,0.17363062303242052
26,0.7695005883514789,0.8315814960915133,0.06317551632132959,0.15395941969634977,0.03309987964745407,0.20793113365851096,0.18436138335318936,0.9244740698372388,0.054085622893513326,0.22437508017777766
27,0.7834835211153054,0.8253943817432461,0.07181896278878078,0.15285750036608828,0.03721836309637097,0.239508716859219,0.17670281408116426,0.927629058742095,0.03835400616931289,0.2800862921817072
28,0.8003977039040442,0.8191050743814047,0.0861933303472776,0.1529437914802338,0.040911654481740174,0.26815043969794666,0.16478411267513057,0.9311622224781408,0.043941185879950155,0.31652563947860834
29,0.8165864928951589,0.8135062648716714,0.10172569695239725,0.15305118988067776,0.04388517299082045,0.263418862076574,0.15020529938792743,0.9350137220825929,0.1360859630802984,0.3229059842573079
30,0.8304168173542421,0.809529131582372,0.1161232322711375,0.1541052499127377,0.04520537024360302,0.21715515781065348,0.1359460823959554,0.9389367175922751,0.20890727575422136,0.25450722711554313
31,0.8395222773968521,0.8076726214522009,0.12691870354448762,0.15653746319194534,0.044774824267404256,0.14642211635905322,0.12366446751653978,0.942685298073195,0.1655307397087198,0.17118115225141106
32,0.8481292159710546,0.8067568147040338,0.13545778569428427,0.161764900828246,0.04573569099279738,0.09654587135799772,0.11404246394425342,0.9460768279626851,0.1221863950104762,0.10020201039352113
33,0.856094843868794,0.8061710495163459,0.1423546553152683,0.1686160371675095,0.047939372330525545,0.05853687859701125,0.10685484097985007,0.9489714473265807,0.033601917407556636,0.030797248976871205
34,0.8624241146348839,0.8072160712285814,0.14643959577378893,0.18164872467927326,0.051201315963441775,0.063836367538055,0.10226154788789202,0.9511332603263853,0.09373314435391779,0.05321568970728733
35,0.8638864272606793,0.809650399496264,0.14644671870532233,0.18928759764352954,0.05338987284886459,0.11181404425827908,0.10165767316686448,0.9524421459268235,0.04235861992870496,0.15329054776699502
36,0.8662756617449919,0.8115612900260779,0.14670134527488043,0.19098677084511095,0.05699122253622778,0.13084235576629238,0.10378658257396894,0.9530400247093349,0.03018763966801822,0.17576866469734762
37,0.8670326718899458,0.8145895771835325,0.14736642773525552,0.18646345530215921,0.05936777630620721,0.14726445878342553,0.10581914063777417,0.9529697678063241,0.01164951541438208,0.192668303133138
38,0.8631640647523735,0.818895754772192,0.1468881945983121,0.17792437741170275,0.05832595047820608,0.16269495947511556,0.1076274173346929,0.9522553323923988,0.019596628415540943,0.20995255978423913
39,0.8549998121075225,0.8256956430651002,0.14367840230453446,0.16860697442536926,0.05508529086363366,0.18166499750183818,0.1104131256257022,0.9509439768807245,0.010424954282514604,0.22304525793472607
40,0.84568164780793,0.8338603149160461,0.13929675406661177,0.15927306419148163,0.05158027818981121,0.18184908538961264,0.1142393390602353,0.949204236872902,0.10280540538354856,0.19977482011500877
41,0.8377375603595546,0.8409977074298723,0.13328816019749737,0.15812240091714638,0.04928643244714003,0.15563511110560374,0.11844578421507655,0.9471351773572525,0.13168843701623323,0.1803441383593466
42,0.8318690518205285,0.846273238967862,0.1265163186887186,0.20554635369670088,0.04813709128782813,0.11773011302044613,0.12302961454740922,0.9449007099454407,0.10794322699950015,0.12993696573071975
43,0.8283717397452498,0.8489657931130987,0.11942416405405702,0.23835861650190374,0.04859486639259644,0.08591730255749999,0.127936740894998,0.9426351652673142,0.019012364345259214,0.08325814309667556
44,0.8284341412255076,0.8482932749298197,0.11363460640718036,0.25454421534726224,0.05107355495989432,0.0718801598048295,0.13259608891896413,0.9405844803528797,0.04308510403609781,0.02637298121434543
45,0.8293907348370825,0.8451300879530473,0.10898829142658256,0.2519369804843123,0.053992483471639964,0.09479130311249201,0.13648908758418166,0.9390107730701855,0.056829253004442304,0.06829095030989317
46,0.8293799066448767,0.8401302154632275,0.10453320163179197,0.23521189170574744,0.05633630262457594,0.1286622104744542,0.14021244754960027,0.9381697880589059,0.06932799831957422,0.12250695399731217
47,0.8290219932541755,0.8343093969799319,0.10149613435011193,0.2098555205293458,0.05758399285090929,0.16527331302667758,0.1435076478054648,0.9382370406073067,0.029599080561878478,0.18451985866458823
48,0.8305706744225978,0.8277415489744712,0.10025633098741474,0.18215501315231303,0.059960683349024324,0.18906836717230244,0.1456168670551244,0.9392719019223347,0.024242871039763962,0.22997213402782418
49,0.8347587957904852,0.8208182052993909,0.1032115453323273,0.15510047377266312,0.062224658865162014,0.2083001137683213,0.1449951084230414,0.9413209648865881,0.057411024678518593,0.2713113525479748
50,0.8393949428731594,0.8137764414580491,0.10604637484122204,0.12833301625681165,0.06503309968872983,0.19260455173120763,0.14216990308702637,0.9442884211479399,0.10805364089376164,0.25437222188010494
51,0.8440705454157529,0.807294436086039,0.10849194708147404,0.10591678761675874,0.06804908800742156,0.1575545777747474,0.13920237581920797,0.9479979552967497,0.18208740562150613,0.21378503966147494
52,0.8451876776558502,0.8029046800572236,0.10794807600889893,0.08849236816343625,0.06961270470907414,0.08821461278656324,0.13728089086584455,0.9521389359394824,0.07384186562988516,0.11952327819161832
53,0.8419590415380606,0.8010372085568322,0.10372318088540343,0.07740291983163707,0.07042372393305925,0.05120630937627703,0.13850084482481145,0.956516937122557,0.016146346222062426,0.039739976620735196
54,0.8362173042574347,0.8006487252347104,0.09841209947893545,0.0840238461078141,0.06914719046347835,0.051215606668309425,0.1418392638182938,0.9608846110914285,0.14064412982846833,0.03356763305120791
55,0.8275237300898417,0.8023780578941382,0.08988874612334383,0.08806590675797227,0.06762025391272303,0.1078156132721789,0.14705937309140718,0.9650395153011256,0.11098178367862363,0.11430904982318187
56,0.8180135195416952,0.8052100970199675,0.08002081181150957,0.09012155493132262,0.06605054464150517,0.15527378310109763,0.15474583258977714,0.9687982447671547,0.02497256655252168,0.18648441576745414
57,0.8090000630246451,0.808854809144018,0.07154984725269072,0.10698545789147554,0.06430159082232793,0.17141539360712796,0.16287367678448927,0.9721020210556177,0.009841387511663933,0.21442432584167656
58,0.8034248595757914,0.8123629369656898,0.06574657857037099,0.12524301170687746,0.0648970052968543,0.17293207634582622,0.17014603750228657,0.9749644428040476,0.060586660190762295,0.2224231548462868
59,0.8009258821983816,0.8157712691581336,0.06542154923726125,0.14328103158284686,0.06535726809827956,0.15102375144110686,0.17473791148111328,0.9774471758926259,0.06946080422273541,0.19212791194979217
60,0.8006430109150434,0.8187518429869007,0.07014653249923092,0.15584652803559243,0.06485980961653752,0.13068392638581758,0.17505118916194776,0.9795855230843991,0.08386234261597737,0.15507661083238042
61,0.801903051236592,0.8210984196114557,0.07693784659558038,0.16503459142158888,0.06418527077566036,0.10661121565841285,0.17196368142468865,0.9814547053372722,0.09109005551805881,0.09929175775493498
62,0.8050480550284316,0.8221674260655856,0.08367344137768254,0.17324111062968203,0.0641233294167456,0.08706896108020344,0.1671222146171637,0.9830385941305255,0.08665125752965348,0.06724531938236857
63,0.8080762634833129,0.8232296646971855,0.0900379873406932,0.17951422937519285,0.06328649674482015,0.06560847883019567,0.16172766618382833,0.9844135022671103,0.10274300680424295,0.03606812677320103
64,0.8108111474960638,0.8236098637934137,0.09424647298028076,0.1818382803493255,0.0628694284536659,0.039119647234444235,0.15746383986431634,0.985664091596306,0.029955580440291008,0.024954910674190516
65,0.8136815022189238,0.8230743981638393,0.09621040863507509,0.17774672187511928,0.06387708760745099,0.028412880420904778,0.1556289027187615,0.9868083825892678,0.02035551389114447,0.010169899709209835
66,0.8184228253395069,0.8212698677687599,0.09620909587636242,0.16834000332866383,0.06749838492408892,0.03852464564645261,0.1562970024541736,0.9878535085591701,0.022744527410388994,0.0026781284019111143
67,0.8235744071970353,0.8193489286712538,0.09529886788157613,0.15485165699942782,0.07160868496784548,0.05202317580980198,0.158495083147387,0.9887810041152176,0.029624339965060018,0.01614782970563989
68,0.8279257872087714,0.8178314441489801,0.09523731408416147,0.15278452589852748,0.07401141412538548,0.06370210887446989,0.1602187355738831,0.9896421326707369,0.02074432960772757,0.05151156354730383
69,0.8317210454257995,0.8168263990547233,0.09733692578294126,0.16065754875649288,0.07439601160047482,0.07530563397796655,0.15986350271089672,0.990452794247722,0.01223175874714177,0.07734645645319219
70,0.8332840842054157,0.8158438353833446,0.09816919049640496,0.1670455556815323,0.0738661165424246,0.07894566066470002,0.158386024668848,0.9912832980213887,0.009421199876430865,0.09977276323538
71,0.8350113995936798,0.8150171945601886,0.10095165551887354,0.1714339368823278,0.07300325067779836,0.08836089569273162,0.1563070052589494,0.9921816831058311,0.014072493252054561,0.12539933916202617
72,0.8362387991978945,0.8147936570479779,0.1047762564764016,0.1750076427467304,0.07166425836260264,0.08872133757243165,0.1533191963842961,0.9931776655591985,0.04603729946009777,0.13161056224136214
73,0.8374156037448711,0.8147193201626696,0.10909790677908757,0.17698403056496267,0.07020783204565266,0.07498136566470877,0.14973303967321955,0.9942594257358748,0.07800074311286596,0.11081821137496004
74,0.8379058074542607,0.8153003148509582,0.11255894650425553,0.17868034171380087,0.06837754318426195,0.04960532733192506,0.14622037963086978,0.9953723664294936,0.12564287983429437,0.07526192082252417
75,0.8367054753947546,0.8155470575213699,0.11176837403509117,0.17848851101436689,0.0674772478698099,0.010192059759741409,0.14516310027545706,0.9964471941682534,0.02141793932254529,0.005713141377529573
76,0.8354150573490627,0.8154047079358125,0.10859227588160453,0.1772926589823934,0.06810209548966492,0.02539417942959689,0.14679823381998935,0.9974377483093307,0.03482526078877428,0.026240444042038298
77,0.8351752014591892,0.8152849915545402,0.10512440494906164,0.17572303145940582,0.0697789681709249,0.04662077399621946,0.14975399907936343,0.9982676962939291,0.05974161367155415,0.060194647052053116
78,0.8378474818993832,0.8151226189956544,0.10479125596021072,0.17405249239597642,0.07209490531706159,0.032315821373138376,0.15191710020531274,0.9989247005949037,0.01154653334194361,0.03963931199450761
79,0.8429799582243465,0.8146900077739572,0.10794511014662218,0.17258595194805157,0.07446950355904905,0.030768936254004804,0.1513340782649064,0.9994408064093618,0.012842415794561194,0.017919044939845863
80,0.8487504522410534,0.8147352334794429,0.11315651913231597,0.17309984445411392,0.07596997457034327,0.041742657582131706,0.14825791689292733,0.9997930988411007,0.008486474766750941,0.005206034986680052
81,0.8553643754270656,0.8147764603373411,0.11932395680565927,0.1757409069975971,0.07744691793088852,0.04944558697399592,0.14360570034963432,0.9999688637963468,0.010158762108095857,0.010393033591268416
82,0.8629858695613447,0.8145288303601301,0.12619265073501465,0.17876762224538364,0.07916789865085387,0.05829714872545046,0.13789726187461684,0.999998668690959,0.01992446317472909,0.03346700715282427
83,0.8702358420215955,0.8138752208896289,0.1322634790912465,0.18082156490588522,0.08111092854350574,0.0538984140859532,0.13173510915375095,0.9999207330666713,0.014418746854948936,0.037806473012889995
84,0.877201932817814,0.8129873528702699,0.1376288941222096,0.1800484896212288,0.08305617493306429,0.05109132172061906,0.12603429029060434,0.9997400538513318,0.00987922317261397,0.0329618198631672
85,0.8822673950071148,0.8128912322653292,0.14267161361332983,0.17670837342183424,0.08330971214230735,0.05179243584375301,0.12063926656123346,0.9994927582386569,0.015034895364504057,0.04812144282470615
86,0.8877212053786022,0.8129816603680157,0.1477944843169605,0.17298648023702196,0.08373037723565628,0.05201139985591483,0.11519471092535268,0.99916913179527,0.040513876232657293,0.04179097947244572
87,0.8917328166452155,0.8134358758488146,0.15100495730044092,0.17005403308548456,0.08417143714594298,0.040739859243563985,0.11053651652653963,0.9987510097909735,0.020299715210599076,0.033899772884487075
88,0.8964092468920969,0.8137607741033515,0.15374400404400634,0.16805966765163116,0.08564751036516577,0.04023611888764407,0.10700352546538869,0.9982397198135509,0.008552606751031606,0.03684309127509665
89,0.8994428654249129,0.8137845307905335,0.15443869650645536,0.16622365827898938,0.08720068645484474,0.04038212701730415,0.10459265701289189,0.9976052704377765,0.031028447905030978,0.05390287431392209
90,0.9006830884808346,0.8141082216911861,0.1535583945482477,0.16774322520656318,0.08841782895231862,0.05444175191075867,0.10374403005143461,0.9968483471419576,0.010338868315753232,0.07770230868092845
91,0.9004458842953751,0.8151839250834322,0.15289134294980367,0.16913760338836506,0.08846437723061987,0.0571190016315986,0.10343861888826304,0.9959671221804411,0.008370331108042871,0.07833899494039002
92,0.8990056119662329,0.8171702953873178,0.15323786262924616,0.17050083994940204,0.087116438930299,0.06385433190179693,0.10224859453249549,0.9949718526523028,0.028010196336852707,0.06984905919467366
93,0.8961539476958094,0.8195080251554299,0.15553961485942513,0.1694698872113024,0.08340362535923537,0.06499588430315308,0.0991884446369887,0.9939345871415363,0.009482149365185379,0.051556169839993234
94,0.8918627506408581,0.8216307632650899,0.1564561635443093,0.18030888152982602,0.07941898372008659,0.07019401829669175,0.09560219232484381,0.9928994918634543,0.09498757720049425,0.05974290144991207
95,0.8884312109965541,0.8231906134049696,0.15682662891508414,0.19341370556673174,0.07568731139770779,0.03945315416008548,0.09294118075240942,0.9918720844797819,0.013505190081422295,0.04358307324456056
96,0.8879327724670457,0.8235549743543334,0.15552410485833876,0.2038619331576479,0.07540058194930459,0.036322529032218276,0.09169920457629742,0.9908741347984367,0.048866557342663285,0.03874038470158777
97,0.8873435213405854,0.8230217133583452,0.1511964499000599,0.21167982061319132,0.07665446697192431,0.06246171515384824,0.0935351735204252,0.9899304115723125,0.06660851266429657,0.027483427932536334
98,0.8874044665951042,0.8217932819406127,0.14674072803625943,0.21752373422097207,0.07818755443275395,0.09035875838538414,0.09748403422204782,0.9890986027709079,0.03382271880667205,0.054898887997250026
99,0.8877936274691922,0.820948593899857,0.14339132142235853,0.2224810575245232,0.0790574316015913,0.1059152212186233,0.1009235116864872,0.988376066022899,0.009248345028615794,0.08449627111091468
