Frame,Center of Mass distance,Symmetry,Grounding,Arm fold,Leg fold,Kinetic Energy,Potential energy,Bone length coherence,Torque,Center velocity
1,0.6950027719804823,0.8487590262480061,0.021397221534822163,0.300861127706645,0.056595600238754,0.044468650057001693,0.21146481919815818,0.8902183034771135,0.01676094228330847,0.07590003562371439
2,0.6959740994947776,0.8513291341245821,0.01889832027243525,0.294119474454617,0.056136979513475134,0.044468650057001693,0.21146481919815818,0.8935652721941958,0.01676094228330847,0.07590003562371439
3,0.6981666739676753,0.8528939100307988,0.015220163626791744,0.28430662940684354,0.055593667466163586,0.048699039383034985,0.2066854553821526,0.8973975200800199,0.013496656618559241,0.07577880885530108
4,0.700957134374006,0.8528441357571277,0.011275599597098411,0.27347237495237464,0.0548239182212094,0.052496622667729274,0.2014362906844796,0.9021492528768698,0.013274385289728666,0.08004877399044168
5,0.7036944311343861,0.851168206380033,0.007618111208040743,0.26366478039144925,0.05409291083727722,0.06226257103936905,0.1961314616407606,0.9081276849503261,0.012841914874351996,0.0970714701973064
6,0.7060580998265321,0.8478104421665578,0.00413954945273554,0.2584975087981634,0.05344015962920714,0.07316301491399378,0.1907090635739048,0.9153043226225371,0.027255989893679198,0.11257419952459798
7,0.7084775377281725,0.8434194463529812,0.0009279155052070428,0.25813293724365954,0.051876106080592746,0.06876573082075982,0.1855647127488099,0.9232308208534779,0.0632311368281489,0.09423964051178135
8,0.7086866317913234,0.8391062102905767,0.0,0.2618874065361566,0.05121521928872127,0.06403279629130244,0.18185531718135495,0.931606244016904,0.032027709627855436,0.0829042120891748
9,0.7083702739293992,0.8345979872004202,0.0001954315005224332,0.26908942668994557,0.050618264916540846,0.06077749114964887,0.18000537088201682,0.9402266115348913,0.029354151834145588,0.06780559639939603
10,0.7068439987378989,0.830451775780664,0.002096836760170716,0.2777313503443543,0.05011295747052968,0.04725162074771462,0.179901909672836,0.9487084574767499,0.016151398503218596,0.027359856476432038
11,0.7040353083950177,0.8275229049431506,0.005839897679193472,0.2857391294994408,0.0495763611085999,0.04263681838037581,0.18169789471143807,0.9567528280128921,0.014961025749916076,0.0020358975869048763
12,0.7003272729625354,0.8254709793266166,0.009944058318494325,0.29283592951718984,0.04955451115476507,0.044586833087302026,0.1848466421425925,0.9642728751338695,0.023360921149074294,0.014068623686730966
13,0.6957463310243491,0.8239227180274432,0.015765319871845387,0.2980226513164268,0.049798517464205175,0.047985581950545836,0.18906480683553137,0.9710563094063065,0.022403550683745735,0.04407211189297811
14,0.6911102125807492,0.8229241340619966,0.02234736656779589,0.30042918365698423,0.05004044112110391,0.05784710976052904,0.19472070134150754,0.9769242293654047,0.024025851408412884,0.07704014267558794
15,0.6869019700485615,0.822382245026098,0.02840222402831476,0.3011946737302234,0.050436480381250086,0.05815524133826707,0.20098102095654993,0.9817935505651686,0.024184177309748374,0.08889683326611174
16,0.6837876148216939,0.8221463339783529,0.03283620940011028,0.2989695069409244,0.051206662021645706,0.058483887698340016,0.2067695820012097,0.985640152308088,0.042664685538210165,0.10050769038596244
17,0.6811697867580129,0.8221930399243673,0.03683536835697209,0.2948929340166602,0.05155120235936962,0.052003950523140274,0.21198739741562805,0.9885913926295316,0.018411403999982295,0.09232408221276768
18,0.6789087845858366,0.8221221798239525,0.040788853936270804,0.2893838930670437,0.05192671135758049,0.06303164415014789,0.217236176639868,0.990601437068136,0.019926815445330048,0.11289780448736307
19,0.6767932733108576,0.8223248506017822,0.04462707805108431,0.282592233145516,0.05224614309101503,0.06518779753315287,0.222882538994506,0.9916481181090991,0.02462201721497456,0.11670149900808097
20,0.6743092979962969,0.8228969804893761,0.048340772202656014,0.27489671761253326,0.05260401715785766,0.06461332467652475,0.22868487004317298,0.9919010769438824,0.016408935405298114,0.11711907191611522
21,0.6722438842305603,0.8236206926424686,0.050906114227520775,0.2675416980543694,0.05369228636831067,0.06231884366160601,0.23407323252938106,0.9914755362882682,0.05466600564230218,0.11294940304522735
22,0.6711600879581139,0.823655674470317,0.052545201146688446,0.2585580132263854,0.054564612474784016,0.05966569138219275,0.23885981411714158,0.9903805495531023,0.04636390846469019,0.11012706791739256
23,0.6710046179835769,0.8239142248717208,0.052787421218474705,0.25061298677367244,0.05535022339653008,0.05121304850601909,0.24276960621022484,0.9886453341212313,0.03737212370480987,0.09206520338358051
24,0.671458575175197,0.8249307778168741,0.05176942284433549,0.2442589120115046,0.05611619783184076,0.03890902975317046,0.2451440191053218,0.9863623081489465,0.014201415554015447,0.059807549298062236
25,0.6740351919248672,0.8258666040680946,0.047267113271811996,0.24265616845265814,0.056340935413563144,0.03189113713897901,0.24462633090388458,0.9837913630014802,0.014981699182948689,0.005499858958155357
26,0.6787187793849498,0.8267107920096345,0.04156899388509754,0.24675931785023023,0.05638357119559842,0.043403971214136416,0.2413637946383811,0.9810663556244114,0.03599917506210682,0.02342612742686002
27,0.6840400432089817,0.8280427884968886,0.03381966155161087,0.25319736280561017,0.05579658302534987,0.06256792530430902,0.23585764473968626,0.9783453881085536,0.02096960178601705,0.07116019896494678
28,0.6913238777842017,0.8283327974649912,0.024124167517955618,0.2632701166831741,0.055721238714165164,0.07700867114603258,0.22757546234090098,0.9757267020117416,0.10107123328481347,0.09789405308351583
29,0.6963765744908427,0.8298045346030584,0.017787884731551254,0.2711579698810828,0.055760273062068245,0.05733390858428675,0.2197750702866508,0.9732564382103694,0.01760699219611609,0.08474375744774212
30,0.7010753019772666,0.8312951474236391,0.011653080273735213,0.2795391628099548,0.055483601865664076,0.060306772068448894,0.21327456333486,0.9709999670507357,0.07350595527063984,0.09947404980584351
31,0.7041826723863782,0.8329889074691151,0.007609883556738011,0.2864454536382442,0.055443150581695924,0.04236299178142265,0.2076566531769347,0.9689938922430189,0.03352652047404519,0.0719931998414865
32,0.7037090923457627,0.836695602765881,0.006366492144651467,0.29105712340682877,0.05568367761461673,0.044798758176730805,0.20373666009163172,0.9671602412796925,0.041421503206306866,0.0929251629617455
33,0.7028821173584779,0.8396177206909302,0.005817345984357613,0.2929442183463052,0.056393266751219084,0.0313268491790078,0.20096275867735186,0.9655612616308824,0.013422457004456058,0.0601261230386786
34,0.702028801345215,0.8421655411835615,0.005191077984141675,0.29264778072040293,0.056364857053131046,0.032347865499904496,0.1987748206433774,0.9642314113995273,0.01430373410415208,0.05963357933574862
35,0.7005280581034485,0.8443712373242767,0.0052741475238007466,0.28849290851187526,0.05618291129106548,0.03586278826921087,0.19666267236731785,0.9632052703968794,0.020799460423352102,0.06521054794681326
36,0.700774798707775,0.8450397472628772,0.0034979413436146533,0.2823193192894889,0.05604721556538931,0.052398995518115006,0.19361574400202972,0.962572817296379,0.02166178334891477,0.08981855779626284
37,0.7010006779771911,0.8449526058362081,0.002304386698907186,0.2748071837855035,0.055839810881099475,0.046071385837774134,0.18995194040156432,0.9623279042027112,0.014863470544083539,0.07347907188033277
38,0.7026435163660939,0.8436156365221212,0.00041866849731506887,0.2661331412092645,0.055233349524518985,0.054024366388846216,0.1863237088407272,0.9625088672030713,0.021271658200036313,0.08372190673615451
39,0.705447382162752,0.840993520267953,0.004122102866840509,0.25718208845670776,0.054529528456157196,0.06657920029663325,0.18177434621040484,0.9631614335454538,0.01441326236235246,0.09975412331935975
40,0.7084631543070068,0.8371010085712326,0.007179220531620062,0.2488948857962593,0.0540114313378354,0.06916763154431609,0.17717411087248547,0.9642932813357779,0.03173516199459397,0.1009322066616391
41,0.7115210888720013,0.8332335447869675,0.010898788036682,0.2440372090772004,0.052764553945947215,0.06547425593557095,0.1727430489046854,0.9658235239633317,0.09584371378726131,0.09282830188878151
42,0.7127558855420248,0.8295606622115179,0.01200156591415465,0.24393971183402163,0.0521554829631633,0.04530610174165506,0.16949054929735116,0.9676988459968457,0.029107664482414055,0.061137779022879445
43,0.7127360884023815,0.8260312387327222,0.01160919120609323,0.24824279299468832,0.051806681315151995,0.04875873189551735,0.1680936877673306,0.9699045200287791,0.02147878500830473,0.05836323089909937
44,0.7112150466384851,0.8230830326841636,0.00966193909430608,0.2552871628761463,0.05151189972142358,0.04177129562751234,0.16801382037590246,0.9723495549820196,0.01321139466775312,0.027322110949156448
45,0.7079781904954184,0.8206812072434695,0.00555946363659744,0.2648648373285726,0.05167640095862321,0.04468295151564792,0.1700036961232277,0.9750006516701819,0.016479052995380192,0.007880047375798213
46,0.7040876840688605,0.8189601968299975,0.0010209226598432057,0.2743311503314451,0.05177865109336511,0.049563148791193286,0.1736399577102676,0.9778250633024923,0.017177414621221954,0.026923406785454213
47,0.6998049187606966,0.8180975005814443,0.004273273568487385,0.28336372835964235,0.05228021079081874,0.050210852079758644,0.17797101503604273,0.9807104802794255,0.03124695637378566,0.0352343308493581
48,0.6963582575981196,0.8168583157774271,0.009065335246528007,0.29162063138948197,0.052349435018918894,0.05035511622038827,0.18244659034916247,0.9835732347341183,0.01360676559748172,0.05703563625631331
49,0.6926006115196761,0.8162156803271872,0.01461163959745755,0.2967139088910748,0.05260998561890666,0.055172414038598246,0.18719024320630998,0.9863231529351374,0.014936163586479801,0.07711638776062553
50,0.6895317669745388,0.8156456677932448,0.019985138488947167,0.2992860108292821,0.05264301186971527,0.05911752664714707,0.1922592140387559,0.98887038720674,0.047553566540316373,0.09525367664239268
51,0.687671955145627,0.8156659477502171,0.023193773804524812,0.29944939333133225,0.053093991337358856,0.05150074416576553,0.19659850396958484,0.9911810699689252,0.04539477216740585,0.09126804575397052
52,0.6853652372384418,0.8158911411790054,0.02758736438227383,0.2949257816976371,0.05349380687240616,0.07141079710020717,0.2010647089993015,0.993124768948075,0.019607533803441293,0.12696550290734676
53,0.6830768018051097,0.8166681170525084,0.03183030468210285,0.288949756674532,0.054003847565577336,0.07331771212691754,0.2063564118033326,0.9946632032393963,0.021434424491463558,0.13179175724398667
54,0.6812629269621167,0.817511503929898,0.03571915859092688,0.2816660763023746,0.054017083083536116,0.07478893473501745,0.21190066902223806,0.9958221598798447,0.014481140294646094,0.13329430815259138
55,0.6781751321726927,0.8190489487446062,0.04028986671042499,0.2731801222655205,0.054565279564937605,0.0784534973956416,0.21815582054500135,0.9966083175460128,0.08273474908232212,0.13552833654732505
56,0.6764822567676418,0.8204724170800658,0.04264126501933617,0.2633987565138808,0.0549668724187842,0.06368974571589937,0.2240917653286927,0.9970372053262657,0.03547972948377533,0.11286669803232639
57,0.6763255976868447,0.8209638804929054,0.04349466080325605,0.254194460246104,0.05546731012457569,0.0642601299593121,0.22873800035451017,0.9971065861178302,0.05274417672370872,0.11585614917290331
58,0.677690861384575,0.821421835297701,0.042310473785634184,0.24510291474870435,0.05552340457080791,0.05010894928483621,0.2316932945390427,0.9968399265886891,0.02476610482772623,0.08006732306877616
59,0.680852087619597,0.8222879797825531,0.038184157964813406,0.24033609185473234,0.055384654469885324,0.05151302951350386,0.23213797069088252,0.9962231203123376,0.020761467583775294,0.05638097882763324
60,0.6844439435574262,0.823237817472226,0.03387264564343399,0.24152279471155014,0.055243041568339916,0.04716729714673464,0.2306809879078821,0.9953356478393082,0.02040725217633251,0.028791707697358636
61,0.6885961717349596,0.8240494315338295,0.02791141488960728,0.24642416076138143,0.054872820161394845,0.05128650172385023,0.22709380972590734,0.9942914426801919,0.014314569155793476,0.050473806042631575
62,0.6938900559197836,0.8244047878516476,0.022038309220215963,0.25517258036495244,0.054229812970036206,0.056000640544848684,0.22176279359349696,0.9931231340366826,0.046433760141467315,0.06452486236107206
63,0.6971823211628987,0.8254609571890091,0.01696511960127666,0.26537657573248985,0.05347088000567119,0.055378776404584974,0.21601980396536113,0.9919253769964735,0.054808064832388884,0.09487599216416397
64,0.7013800041681906,0.8261681461296972,0.012380880464876969,0.27643533738114334,0.052724405513378966,0.04231443606608604,0.21071314716451545,0.9907058909961202,0.014818853883703142,0.0590785720284507
65,0.7036376511666151,0.8280470607578239,0.00809650452354737,0.2876875418797099,0.052153042488848396,0.05375992075494435,0.20554499119585443,0.9895841031701031,0.014944862665357665,0.10097080665072311
66,0.7061651505044967,0.8290960467944511,0.004082649791918962,0.29592059958083,0.05188580012720994,0.051561178509439635,0.1998779438763449,0.9885685131051842,0.055282156841907605,0.0932113459164556
67,0.7069106477734041,0.8312765347733174,0.0017448816282381605,0.3010947367887756,0.05186278800039752,0.043402279077203273,0.19518029171552342,0.9876719947751015,0.013055244362499684,0.08315243533294148
68,0.7065334279786839,0.8339041464605685,6.478036296798682e-05,0.3029627620650999,0.0521340157147375,0.054220013037593905,0.191134312701847,0.9869120271241104,0.01399198652824912,0.10609210018912311
69,0.7067173461499031,0.8352901929183059,0.002178146771991029,0.3006236033181258,0.05260335665134567,0.05411533365581453,0.186997107124851,0.9863445640540889,0.018124761070622636,0.09853897565565163
70,0.7059606140947436,0.8365544940084721,0.0035944923360107994,0.2947723461425584,0.053128840159913454,0.05617278487236543,0.18327628361366982,0.9859915313618455,0.015706290749665893,0.09826183755028518
71,0.7059261098784081,0.8374749452394868,0.005254074037188544,0.28544404891754094,0.05349482395799826,0.06049052017095134,0.17961656164847237,0.9858435118184389,0.015557965356919555,0.0996891477974156
72,0.7059176385781045,0.8369007407470134,0.00691596047201439,0.2728848883017309,0.05408093743243884,0.06460773354612796,0.17603556020527722,0.9859492168848691,0.013282875663759436,0.10171070400859354
73,0.706794004878096,0.8347362224922057,0.009212516032934673,0.2609436427197506,0.05410398657921513,0.0721179778189239,0.1725848812324396,0.9863562153233012,0.017771750184417436,0.11620352377887978
74,0.7072959006281679,0.8313117349016402,0.01067443584618864,0.25283475136262296,0.054053010647644686,0.07258601241790827,0.16921888297782012,0.9870734541137839,0.044278205315005634,0.10976171814514661
75,0.7048569897282414,0.8279781419905291,0.009144290960535713,0.25050727103746134,0.05465519237279535,0.06354241457391184,0.167542000902262,0.9881019125411226,0.01621869150751463,0.08487651391675566
76,0.6991021847848546,0.8257048002559589,0.0032397616108676636,0.2564896968652676,0.054874363645955306,0.05742843141340996,0.169360565191124,0.9893775468080467,0.0215360417157682,0.03680500781462335
77,0.690407649305611,0.8243955862581525,0.0070992983164051456,0.26596001537938063,0.055361587601965204,0.07127370652225208,0.17532353079330848,0.9908667228778999,0.08006463532134575,0.02174342799707254
78,0.6779945993146363,0.8252727605290768,0.022643661143023748,0.2771979736001707,0.05561019702521876,0.10230305648709566,0.18553922951646054,0.9924964860448223,0.06326610185300424,0.06940484761621946
79,0.6647296912551787,0.8268051263249344,0.041062150739182575,0.2888449962586965,0.055728825088086374,0.12462607313810471,0.19900156055880017,0.9941964079624356,0.1159011026155215,0.1251423433924466
80,0.6501208635181511,0.829835013630468,0.06322491557639369,0.29793216519390026,0.05614378384256088,0.15749122588460396,0.2153671696205116,0.9958264196453828,0.08262817415048584,0.1844240114253338
81,0.6343386016278794,0.8333297979330888,0.08864897765393649,0.30464796520898385,0.056351715521883415,0.18488968638324937,0.2346622641048457,0.9972826716505004,0.10337735328631865,0.23086368430054752
82,0.617342394918297,0.8375508134197057,0.11763249020320685,0.3072659548958292,0.05678639901680338,0.21725216052461502,0.25662436655151033,0.9984672169384674,0.0395499518008062,0.279588230654688
83,0.6005910041329277,0.8417718688909921,0.14866855393168998,0.3069150993236095,0.05728809260227652,0.23419262990015327,0.2811482571409077,0.9993196331619999,0.03844440097592161,0.30556817043459045
84,0.5849680103937848,0.8465256073807909,0.17887161752993452,0.30364115080566995,0.0576802925477574,0.22862008524188498,0.30663874338773583,0.9998339299867735,0.07198686596872998,0.295984580241504
85,0.571542682652749,0.850775184607726,0.20675562343658743,0.2980967275001749,0.05807574659972568,0.2168342749787932,0.3313902986205546,0.9999988675564103,0.0996549700037067,0.2871675819644133
86,0.5599661190309009,0.8549243010467448,0.2317628508909008,0.29259600928340485,0.05842406504003795,0.19928127186043904,0.35455478168341553,0.9998512658640722,0.14938316492584933,0.26772757097027855
87,0.5504416239128007,0.8588727735017934,0.2518802265706656,0.2871524536221102,0.05866294308413804,0.17001784984849871,0.3752381718195878,0.9994197911744137,0.17133739282930535,0.23395690969028796
88,0.5427969429446361,0.8624244816696789,0.26726610798137734,0.2818809221036564,0.058648138301413646,0.13496305735610079,0.39253266029589823,0.9987632343843752,0.08212890830371945,0.1893999137891196
89,0.5364918937220191,0.8656247010228163,0.2802548929235326,0.27631140384761693,0.0594819421391726,0.11904104614223121,0.4070009095387261,0.9979079088639993,0.10228280319110858,0.16846251843135007
90,0.532422595766148,0.8675946747239887,0.2901762880278209,0.2716364516720693,0.06172482696154067,0.09872265744538734,0.41935408634285576,0.9969008924307703,0.05923690845931284,0.14579917275732
91,0.5287372607289532,0.8695966285474271,0.29832873810201876,0.2667859930696978,0.0636455427567355,0.08704971193378887,0.4295263914105222,0.9957676555186304,0.03374969216597188,0.12903236634118298
92,0.5247002622876016,0.8718036459395736,0.3056332692324712,0.26308785173716603,0.06578997770497783,0.08027209902814186,0.43818659807323146,0.9945536008725558,0.09642192619424657,0.11562422288380052
93,0.5214220527547689,0.8736092867947001,0.31044782065014215,0.25938160701514273,0.06748057435755547,0.056736672429731835,0.44487106434555923,0.9933046615581004,0.09021226201230928,0.07654991609589087
94,0.5192630319656892,0.8751275468407261,0.3136488726485553,0.25700360427216873,0.06840107213376138,0.04092620910164696,0.4493374651916834,0.9920456439390547,0.0719036175364879,0.0575845317187707
95,0.5176201943681307,0.8767253315634084,0.31599536410518353,0.25484617660197745,0.06916285966394128,0.03141774470072945,0.4527323693961929,0.9907800435581852,0.10500387339964254,0.046575863710401025
96,0.5167041498243247,0.8782974186287238,0.3153757253119659,0.2555132955737696,0.06998655130784069,0.012813712176388,0.4545354543919129,0.9895198009715244,0.04431555674568751,0.01972882648890827
97,0.5173132918560912,0.8788150025895394,0.3129824948482384,0.2556089659504272,0.0694387351897132,0.008297883799063932,0.45436894649556075,0.9882693951198306,0.02575738257607361,0.008980789994011019
98,0.5190722810763937,0.8781239424063085,0.3082978139325315,0.2547789232536856,0.06809658206512047,0.020365149653873146,0.45234998483975675,0.9870554832647872,0.027444956145266566,0.018791010770216783
99,0.520949721121315,0.8772975037112478,0.3037600907644912,0.2547679009117791,0.0665758748020389,0.02036865070833828,0.44921012531063315,0.9858727487298979,0.017420815883596806,0.019917944416543175
