Frame,Center of Mass distance,Symmetry,Grounding,Arm fold,Leg fold,Kinetic Energy,Potential energy,Bone length coherence,Torque,Center velocity
1,0.018834117803385453,0.7322422655781107,0.9220975309920606,0.30857005726170034,0.5983198131596587,0.06816297337731023,0.5709173686657416,0.0021983924508736145,0.0074048482097841565,0.08741618464209203
2,0.019934199730589897,0.7402018598830854,0.9182963476863522,0.313486027273503,0.5939760125589899,0.06816297337731023,0.5709173686657416,0.0013066241236426232,0.0074048482097841565,0.08741618464209203
3,0.021272816840373333,0.7483583923194828,0.9152225567644677,0.31872837337494875,0.5891591864810845,0.06814561362544672,0.5718051884610952,0.0006294185619588911,0.028026725582689795,0.0851930143770493
4,0.022172515144681906,0.7575100918005894,0.9098799437622233,0.32428431870898844,0.5847559693526584,0.07855048191702255,0.5730200381602206,0.00022786446563607013,0.011546639352419381,0.09650345957361631
5,0.023444945265662202,0.7671995600139918,0.9027288335349399,0.3291881555565848,0.5791863205007464,0.07801647556815267,0.575564028533093,0.0,0.010585690405663681,0.09858221522407738
6,0.02474289246722344,0.7785356196337243,0.8932994961075265,0.33517634201087515,0.5729441282787653,0.08127051517668371,0.5793569885727806,0.0004792280125662015,0.0072956814905047246,0.10590089501512341
7,0.026041833608220183,0.7904413641485547,0.882996324162957,0.34058937206797607,0.5664107971240583,0.08463151118973185,0.5844415563336351,0.0018811155180310402,0.01423852771643941,0.11240429084927883
8,0.02782476795024159,0.8028603944756365,0.8720745814888154,0.34466198565894396,0.5588340778430326,0.08680658447762225,0.5901921210693349,0.004073079726927665,0.008872807072234425,0.11948393721680617
9,0.030085396434897955,0.8156019007411046,0.8586630911021322,0.34936447442611485,0.5500060625263706,0.08778140661669918,0.5966662188168247,0.0067262101721175934,0.012879955207232405,0.11844799572607363
10,0.03250992471522851,0.8287121410955737,0.8418956351599276,0.35476357241352785,0.5408549605982853,0.09040350628409699,0.6046082309829814,0.009536834325628848,0.04111011385205027,0.1191123387683815
11,0.03501689445215718,0.8402233258833928,0.8279835483312571,0.3604114874700676,0.5323123444730871,0.07913625100128689,0.6124939479518045,0.012620007377626271,0.05562917870665879,0.1066364096183675
12,0.037191489312745143,0.8497336728452097,0.10198373240876929,0.3647106534230581,0.5253409180125862,0.06464296464971275,0.6180670188353009,0.016045427428512594,0.0319520997399911,0.08893707933844934
13,0.038690288983747934,0.8574443557198129,0.10926312678647296,0.36741488209447526,0.521010064196569,0.05288566906420612,0.621629146372316,0.019671512650283125,0.04804856634089315,0.07418478532613801
14,0.039524601093067324,0.8632526106077051,0.11272364276735719,0.3680637972389813,0.5190211734755041,0.04206869923489913,0.6235325902719895,0.023531011449837675,0.037711637551440684,0.06316813238602866
15,0.04034566041384993,0.8674704056602696,0.1134332138168519,0.36829701515850516,0.5174315981391938,0.03053607093713731,0.623615501226687,0.027515407573129032,0.010829680347307875,0.045530246233663994
16,0.04105927277305256,0.8705954126362515,0.11525944821407466,0.36928271459073686,0.5153956382137159,0.023235577268498436,0.6235047900107411,0.03151555736064905,0.016943627546315457,0.03373995482526224
17,0.04118312764838557,0.8722569321683312,0.11716816151397857,0.37036936121937963,0.5143825351629121,0.013622821894921196,0.6240565142245098,0.03544804677975688,0.010930373048252935,0.017445402643323837
18,0.04173731802305506,0.8723832733477455,0.11996217642337545,0.37038701334160196,0.5114621882133012,0.009465677800638563,0.6251611938592784,0.03913013365261523,0.008222083539992533,0.009404335896328006
19,0.04316490380996071,0.8722407507402877,0.123486003378282,0.3700064077053932,0.5059941160983654,0.012081010979339786,0.6272377626993628,0.04262961671696609,0.019233168531545046,0.006970641335271031
20,0.044508417717160194,0.8727089929427072,0.12726187491870336,0.3676715026501124,0.5016576122370622,0.019116957526032645,0.6296895234551398,0.04588727955630164,0.014995392628701268,0.009630359741732809
21,0.04645941521591023,0.8735209952645742,0.1311487984102346,0.3646697215624948,0.4959497006949414,0.02624111287105715,0.6323567288229329,0.048983458104218135,0.03154330205440134,0.011299796853964102
22,0.047373363811588624,0.8738457691898252,0.13320525835672703,0.36285940246347964,0.49366939791124514,0.01460231494039831,0.6345674678712828,0.05189113195072599,0.01471651167409073,0.009320806593941926
23,0.0481892634250002,0.8739185263923003,0.13370534982584079,0.36041866596073596,0.4918550736014654,0.011744312068837581,0.6354762331583013,0.0545781715316695,0.029022213753322843,0.007065773013299538
24,0.04799179125275235,0.8735918683285463,0.1337950666730429,0.35919119295688956,0.49218865159272784,0.002690035279512868,0.6355832714386341,0.05707263402072274,0.00585644635259285,0.0023545449834536467
25,0.04772478732911888,0.8734849882052431,0.13465549836851304,0.3579910314703555,0.4930494421870078,0.00453764632677993,0.6358900890153103,0.059313162961121,0.006955815685560778,0.004951872990217771
26,0.047609971519845466,0.873053249550402,0.1331017178771112,0.3581115877992848,0.4937357302852902,0.006833790879855889,0.6357574344654229,0.06140106186797016,0.015468978699156848,0.005661842601889033
27,0.04765735083747634,0.8721803650142091,0.13193228486409636,0.35687748271618336,0.49368305239574284,0.004084714225857227,0.6348207574542876,0.06335834114279212,0.013276616902671168,0.002706892022453484
28,0.04736794598274136,0.8715750899403657,0.1309346688713096,0.35595455076423493,0.4946891792596444,0.0026080651776741433,0.6342089797078416,0.06512093846038632,0.006298671806749187,0.002431750595820708
29,0.047033207483349625,0.8710103585872512,0.13047194539483917,0.3561301127657274,0.49575819245981567,0.005960312198137664,0.633767489272713,0.0666925599055081,0.006157146975756867,0.010179614274784659
30,0.04717992802261118,0.8701455226673881,0.1291960262271128,0.3580598684850115,0.49523889686371275,0.006255043067101176,0.6330999182389786,0.06809760765613902,0.00653407886594865,0.008205892225314631
31,0.04627235173054276,0.8693932701541736,0.1278996556580071,0.3597407160938694,0.4977013338611364,0.00802756163931376,0.6324424031455388,0.06938029511769928,0.008448108987729217,0.005723257937774124
32,0.04587870813240003,0.8681431687160942,0.1252994451293747,0.35988017889718205,0.4987733043520333,0.009942502551075148,0.6314379401823568,0.07053139901155524,0.013477881124900871,0.00908928781167332
33,0.04515183762619017,0.8671744538094129,0.12378347448188057,0.3605657318995887,0.5008945017517441,0.00940369814884515,0.6302303763985972,0.07154240742795064,0.007664529761946652,0.008780840428920984
34,0.04401950893904511,0.8661360270434055,0.12234541694066914,0.3615613445500249,0.5042576981723692,0.011274576479917853,0.6295181307952992,0.0724208162519515,0.006619139917856534,0.009454678760858044
35,0.043003458630287955,0.8642844586864087,0.11917267237610372,0.3610826633813542,0.508069116275272,0.015103121965709974,0.6284985722541001,0.07315037957997911,0.005804827913288566,0.015023070069987534
36,0.042110303350418765,0.861430209351702,0.11707791865336643,0.35956432460966087,0.5110356339540594,0.020490354626426607,0.6273039089652446,0.07371872129791958,0.027273466786419388,0.02919185311107483
37,0.04172786850247243,0.8575590953105505,0.11502469894947932,0.3571742103304091,0.5119917229396856,0.03177127050334065,0.6267531762611709,0.074101037318415,0.04400726752450463,0.048361910655548734
38,0.041042303541873916,0.8522073189044597,0.11080573475304728,0.3529521150667482,0.5137995265697972,0.04756597947227485,0.6257277832709341,0.0743184401750817,0.006585853167254227,0.06958420788688027
39,0.039865894560087205,0.8456513597203887,0.10837633129889579,0.3488040100104645,0.5161021266898734,0.057641396539528114,0.6244485071666346,0.07435162035714873,0.017699561472459553,0.08949263622205705
40,0.03896236273503334,0.8383655505696389,0.10221162245849885,0.3439370029119674,0.5186157681829858,0.05784967714740227,0.622691042992011,0.07429055205812592,0.007286615866878413,0.07901350619202062
41,0.03869986712899509,0.831524334738545,0.8238188897592688,0.3364828593665104,0.5197679923002508,0.05925040554336453,0.6201721043766019,0.07413608811249543,0.024018892491822156,0.07841424810535362
42,0.038584919959105485,0.8254068283427541,0.8267922121198515,0.3314746541899608,0.5199107967693477,0.0531473167834857,0.6186894099116476,0.07394836036144437,0.016836700214802765,0.06968968172155128
43,0.03841343126430298,0.8199991562083578,0.8281689154569257,0.3276827554865556,0.520157019390479,0.05084486413147435,0.6184193743843224,0.07368753174824676,0.022497977670772735,0.06856901725981204
44,0.038384671223185333,0.8142943696254992,0.8319845325706032,0.3224230287688086,0.5205927379749333,0.04179453202887785,0.6178370889579353,0.07340550319403526,0.013792936760006154,0.05213102686867825
45,0.03795700525090388,0.8095739198351196,0.8323121126817876,0.3177255183166018,0.5217606449156852,0.040250591597537785,0.6174310114757372,0.07310178824748294,0.027947123878985205,0.05278847079072656
46,0.03728944562292884,0.8052165405095565,0.8320935856707554,0.3150817134391045,0.5234275739377422,0.03516953277539076,0.6181973252332051,0.07275570530454488,0.007533672569075826,0.04776280824139497
47,0.036253158539922975,0.8010177433028086,0.8330435658891365,0.3110945363277867,0.5262369777161251,0.032044928816446126,0.6186990364752065,0.07244750516792588,0.028490256323579682,0.046457516764531935
48,0.033851021848736416,0.797117766187909,0.8328803544482952,0.308082928438754,0.5327552111918952,0.029575153283332926,0.6189057406457303,0.07213806636014804,0.009819240124085684,0.042270805821197875
49,0.029328543560793514,0.792777518496677,0.835433286891641,0.3014546756049931,0.5458428834123962,0.04091913353137567,0.6180911562032841,0.07184699770374818,0.005726297680205225,0.04732184818562917
50,0.023937878556055062,0.7892378868437498,0.8384583479312269,0.28878504593442295,0.5634245882104751,0.04774268281327601,0.6155324797948684,0.07156517504926158,0.013306251590618899,0.030538748393542953
51,0.019404596433434985,0.7863343091674891,0.8437549031992956,0.27386817284332055,0.579793522377845,0.04349541604188898,0.6120384354200054,0.07125277755347652,0.03294799967733465,0.010928839287842647
52,0.017043789392635737,0.7832940127982941,0.8558388199013947,0.26477666726597987,0.5912203601771651,0.04892310691311584,0.6066390413164657,0.07090728537846669,0.007103169425090851,0.03491017492372079
53,0.01666745740076011,0.7821495004800592,0.8676729223148373,0.26852805076477276,0.5964326819778201,0.04870085229609391,0.5997364128311987,0.07042934187119494,0.007129122513415203,0.05063765701516878
54,0.01777784995204055,0.7832503213223658,0.8752278425166761,0.2776135229841597,0.5959843030757568,0.05234104994301871,0.5936885395318474,0.06978537514726003,0.048065752388183176,0.06751243844990652
55,0.018876396674927975,0.7860349869857803,0.8745635927825832,0.28250485077425386,0.592922982918732,0.07205483200731787,0.5903550473462305,0.06896423152581446,0.08362513617694077,0.09084726536433335
56,0.019233112416658565,0.7892612930072332,0.8692022537029443,0.2753296371565249,0.5904001785669964,0.09772754616417542,0.589596298868089,0.06798666349111544,0.008998730771680515,0.10931442950257515
57,0.019804499046526383,0.7921724284582754,0.8609692180535263,0.2548879932846412,0.5872150368434973,0.09949113038822663,0.5892199569895248,0.06690121442409766,0.007002273916187313,0.10394647279356083
58,0.01899132429258392,0.7931701335398278,0.8548576155269986,0.22015760856108768,0.5885823284920553,0.10240705738398315,0.587524424389737,0.0657808022213708,0.06307591349219041,0.08896043920659213
59,0.017066309729527312,0.7917290672180481,0.8598788132952232,0.21839696401253836,0.5958799992379705,0.11833479081355763,0.5835278646903017,0.06443229355750292,0.05938032925838836,0.044606577328602195
60,0.017876105746528995,0.788672797359128,0.8800933403155536,0.2679652282398429,0.6013250351639774,0.1410654229696701,0.5751225180782505,0.06264406323867722,0.06135318273857688,0.10425447399173646
61,0.01793045776582414,0.7855836529631688,0.898820532858428,0.3152985765679278,0.6101646385390057,0.1248192248405556,0.5639754765324377,0.06050280201042029,0.13354208971768114,0.08332819078424401
62,0.018402498595516188,0.7838867291707512,0.9102553910937138,0.3567871740428365,0.6161445269860397,0.081336909317413,0.5554108100910615,0.05814933243690327,0.04969748287794961,0.04227826756304009
63,0.020663156811179136,0.7833040188960463,0.9205711873601221,0.3805075901412946,0.6167005519756623,0.06327925028649042,0.5487962351453892,0.05574439559232773,0.05248058631524915,0.051614077953690496
64,0.023023147426974828,0.7849493038291786,0.9080641454710541,0.39038429042664036,0.6172550056842009,0.048781642381543366,0.5417175323949481,0.05338807149023539,0.08262332262075209,0.03218946884088272
65,0.024307886296317662,0.7883672260795314,0.9042377345622042,0.4021589334305426,0.6174812759414364,0.021173884720053958,0.5366874832443075,0.05107617499327861,0.012032630055276525,0.010030783404498717
66,0.024338818158682305,0.7914428781947636,0.9080207178039281,0.41132380704985544,0.617739501066245,0.02571968766223204,0.5360863549199912,0.048778931651151825,0.026126216201835355,0.017524146508936158
67,0.024132049967824726,0.7928972164213862,0.910408187469038,0.41765355327184267,0.6195584299876695,0.021609964823376713,0.5370226178077548,0.04654446040909112,0.01767341874639462,0.01947826432906896
68,0.023535205400784655,0.7934478891851224,0.9133083939656367,0.41571992018352055,0.6216655304160426,0.018692391278568244,0.5372517697070873,0.04441671791855327,0.015452535122744422,0.02179934696633276
69,0.022290988665155817,0.7936872933586827,0.9189045243909437,0.40702483106908255,0.6242832213875184,0.023493330288849045,0.5382609250600788,0.0423960908590164,0.01815700285620055,0.028237835852471443
70,0.020465719095535222,0.7926479926498268,0.9218947212617178,0.387917782998367,0.6291421935118832,0.019447187536462174,0.5395478081661232,0.04050570988044496,0.011649376087668037,0.027446670341793062
71,0.01888919480714706,0.7911053597921102,0.9191230934830487,0.35478769851761605,0.6331372853808265,0.01830315232475357,0.5402569888863952,0.03877389829796528,0.00738974501138523,0.028791886591154493
72,0.017802727948867756,0.7874933485191163,0.9175594660206126,0.3070109991494602,0.636131629945481,0.02012226118527294,0.5404882235115528,0.03717843684342565,0.025872281443005123,0.032051949600777674
73,0.016969422479955427,0.7837379304585529,0.9192469801613616,0.24309992999471855,0.6380282647431904,0.03018162517655378,0.5398813159802791,0.03576279053965285,0.010357084693699586,0.01726417506318068
74,0.016765554565822714,0.7778797399593831,0.9220572594053944,0.17546977991292775,0.6387749629064337,0.0337648055454663,0.5385233676613993,0.0344527195637259,0.016637312312547062,0.030814673258369913
75,0.01687805131349819,0.7721534003048355,0.9183560817691868,0.10672023363650837,0.6383042931955961,0.040591774647801546,0.5365310331188814,0.0332723759029209,0.005828434324139381,0.035573663885829714
76,0.017117132058996332,0.766200279927951,0.9129868524883986,0.042449199561333584,0.6381730369188104,0.040516125755372896,0.5341391141086862,0.03217724567661409,0.010030199819917367,0.03138264795225122
77,0.017616150916502468,0.7597824288196815,0.9065239571661656,0.003969384471853356,0.63755528636457,0.04411519933537631,0.5312462787725842,0.031173616071221346,0.01156607487949477,0.0403939597985388
78,0.018042908271748613,0.7543373830897552,0.9009834158380228,0.0,0.6368862281650429,0.041570205856903464,0.5283976964978763,0.03024402521659786,0.005954581871924474,0.037322554895318126
79,0.01891930978426243,0.7489891838924657,0.8948685309878169,0.042263084649375324,0.6355399349617235,0.04181862011972556,0.5261021137770023,0.029351151285261508,0.010335187780794649,0.03706869911748836
80,0.020234302652454624,0.7443347622854617,0.8884050675711012,0.07852827579692327,0.6327374841752446,0.04631174052703645,0.5237128413301897,0.028504783331724095,0.025466704442769814,0.037916153261631315
81,0.0210835141262201,0.7406499160798861,0.8832671789880118,0.11075502039907031,0.630839204625033,0.03986090509230841,0.5219069546176736,0.027714698322980298,0.009245449337660742,0.02931287527070123
82,0.022473344624447795,0.7369698094863724,0.8778028464827035,0.13859399120160942,0.627451650723532,0.043888516957112635,0.5206576421953111,0.026968971118521774,0.005216918687534528,0.03443818715063889
83,0.024172877564818538,0.7336073011060579,0.8707013708807834,0.16078396401599293,0.6245386473194268,0.04529301332542866,0.5186345719367973,0.026249536374004706,0.02079987889846075,0.03493277324209769
84,0.02594918008322109,0.7309843658059326,0.8646012354465927,0.17948031388465738,0.620949816779039,0.04040309904795406,0.5163437613456433,0.025566645862781682,0.008876964968850418,0.03318604539748247
85,0.027613548169951922,0.7293049705380913,0.8608045337751371,0.1940432314320074,0.6163560118209797,0.03983669925236538,0.5150021221966582,0.024914699307312167,0.005352395967864108,0.029090119392143784
86,0.029670565791853246,0.7280991578198951,0.85608244827235,0.20361137646133118,0.6115135419870787,0.04207140946606635,0.514094206434461,0.024290512569559036,0.026125512067505532,0.02819206808109645
87,0.03136265563274661,0.7273570816169066,0.8535349653279316,0.21036525265005745,0.6063161070478061,0.03632651289213116,0.5137953673415299,0.023697972981779045,0.009713230324171965,0.028076832384126987
88,0.03345639583132171,0.7259356355107319,0.8512313422003688,0.21714161393155904,0.6000823186518147,0.03405633832301825,0.5142468664996505,0.023118455387157046,0.04441398569960055,0.027519333464899515
89,0.03482795041508607,0.7247996342947594,0.8501938123100345,0.21982494360235108,0.5955739930651065,0.02057112756112075,0.5148640065062404,0.022545232376678753,0.010585004282731755,0.01797032666105216
90,0.0361203719493731,0.7234600170658105,0.8493193676173232,0.22030047978670514,0.5918177929017097,0.018339097721531118,0.515535517510505,0.021948696267471,0.015572973367570266,0.015047877675040065
91,0.03678592482624418,0.7216629402445065,0.8479719106258427,0.21914149997498583,0.5903542865300943,0.014978208271632976,0.515539631242907,0.021334809440360775,0.019875809119762982,0.019417579322597998
92,0.036832410995285524,0.7205410613044879,0.847618008803624,0.21899472961822233,0.5904310818199293,0.01054905428103727,0.5155668192345729,0.020703376702044675,0.009772189081172899,0.01170694907004972
93,0.036593790622812865,0.7193556170288073,0.848501942778251,0.2188197276329663,0.5902553272954318,0.010616107567249643,0.5163842209452533,0.020049557510847856,0.005971320354683738,0.014237045129783578
94,0.03665983404739138,0.7180711530326604,0.8495391991416121,0.21988353893300053,0.5893482812337786,0.010798076965436639,0.5173784086755007,0.01937592741743056,0.01035168188611387,0.01412652104029877
95,0.03689002519067724,0.7165328113891213,0.8499572114782362,0.22054305182236453,0.5881749777861931,0.010753811028857958,0.5179602902657308,0.01868035327116249,0.005690535231199467,0.01729013392981693
96,0.03716001262640009,0.7156345301160005,0.8502501799070455,0.2211605399604217,0.5869006371989146,0.00740607097787783,0.518280213484566,0.017989453926876148,0.007141997264895857,0.008126088785542083
97,0.03688824329142788,0.7153883745488256,0.8516415064169164,0.21969279713810805,0.5869618120937569,0.0067965174342175284,0.5189448515890969,0.017299595794376708,0.02451243937202958,0.008286761949468483
98,0.03567396606019043,0.7159662538657539,0.8559095581847656,0.21499000780019598,0.5881046071643087,0.01651074343742722,0.5206602303274019,0.016605627692747094,0.02688903091697146,0.01608497170731188
