Frame,Center of Mass distance,Symmetry,Grounding,Arm fold,Leg fold,Kinetic Energy,Potential energy,Bone length coherence,Torque,Center velocity
1,0.026856190169885483,0.669197153917829,0.0,0.22924473919215976,0.508261725771747,0.1947317210713381,0.5183108436692333,0.7769526809670115,0.2840180975791115,0.13155602957106385
2,0.0271493278867024,0.6697386333730533,0.011176194336508509,0.2191691854946562,0.500717723859177,0.1947317210713381,0.5183108436692333,0.7916412145750008,0.2840180975791115,0.13155602957106385
3,0.027531731188062365,0.6709313240508309,0.02012034383554614,0.20936838478337344,0.49544817731715274,0.15563065562099268,0.5325912873906598,0.8064967494913564,0.07601538323084492,0.10026730804620951
4,0.02768167007618767,0.6726244640906497,0.027711501492697906,0.20068072482202814,0.49256251739293605,0.14545576094390875,0.5452346648644325,0.8216764501163318,0.26440087317014355,0.0815842522651686
5,0.028532481184724033,0.6729199760821535,0.03281887803945901,0.19192992068104203,0.4892695287170079,0.11441187838679125,0.5559712613874191,0.8369298787582424,0.13929617157772534,0.05628229997185991
6,0.029381504415203905,0.6733448346258049,0.037482987287411965,0.1851683687687671,0.4850127926800085,0.09575970405681378,0.564143972562132,0.8517380770631385,0.1315241389982456,0.052092564079578164
7,0.030602397969683785,0.6737835369984463,0.04194132730588033,0.1815118522470341,0.47878299112640893,0.07674214079003265,0.5712787813801224,0.8654915458393575,0.1394001969970594,0.040541141487901944
8,0.03194027348128136,0.6750956626783063,0.04552845843102767,0.17824215372137892,0.4716739205310726,0.05928003544321302,0.5776704415154282,0.8781677012554394,0.0357240917831521,0.03482415329932209
9,0.0339515695372882,0.67708908941427,0.04938449424290797,0.17546976906971617,0.46215369730606437,0.05862610868043584,0.5838774904341096,0.889587209212441,0.06333586587206337,0.03853791043677074
10,0.0359310695247138,0.6798510776941205,0.05282751138653422,0.1739386457128475,0.4513070620520961,0.0526721677673597,0.5891234034392254,0.8997837120425184,0.14264667223691255,0.04422578821775391
11,0.03765106909977239,0.6854382369722598,0.05593128872877371,0.17329683261115345,0.4396854168764235,0.07315590052638409,0.59351405688882,0.9086946442182622,0.043197280140281506,0.0754044036729126
12,0.03940615469371776,0.6922883098443959,0.05876168047862229,0.17211735719108448,0.4293017826078711,0.0847504368458612,0.5989181066662319,0.9167171229349389,0.08721876423616529,0.09206464336113025
13,0.04028954367230129,0.699031130305829,0.060941203060111165,0.16928413149687938,0.42406619190783396,0.07609645226627902,0.6046385720941637,0.9241451477137854,0.031519619415682286,0.06899160112174252
14,0.039713464684940435,0.7063266894513545,0.06206826159705142,0.1661605696649469,0.422435810784191,0.07291386343045517,0.6086818382685242,0.9309583745466382,0.09105285144814002,0.0675081026989034
15,0.038340824419117576,0.7144503892723475,0.0644512877815687,0.16417670938249218,0.42156655536372273,0.08287699220191136,0.6121765540163514,0.9372031005109097,0.030894261914481563,0.0742552231819504
16,0.03666110697849583,0.7219304181443703,0.06679137279265143,0.16246243563432747,0.421840640155842,0.08091728204614766,0.6166179619013321,0.9430504222254741,0.07839626636887152,0.07170415630524526
17,0.035491202149877714,0.7286380135936298,0.06924325891726313,0.16106593391072854,0.42203706083946796,0.07004095809258506,0.6212786563515559,0.948473361172172,0.0598294962738297,0.06951105355657487
18,0.03389199786987902,0.7343820476834503,0.07147931643092437,0.15953750803261685,0.4235733283857084,0.06312660049614692,0.6258573633486905,0.9535370940095356,0.18725676264983435,0.05534946131802154
19,0.03251898766069759,0.738604635640056,0.07265421996389575,0.15875928529085973,0.4254948528924355,0.04033031816139643,0.6291318165697036,0.9582785006482554,0.16043529976558416,0.03552899278457858
20,0.03143675093595159,0.7407272323781776,0.07295004029292934,0.15725540083944997,0.4273165228970799,0.021376136078910174,0.6305468277170225,0.9627947875101858,0.1188517108937299,0.014477413802950185
21,0.030660229907797244,0.7414738264027738,0.07301848235081071,0.15551198542681868,0.4285398980242128,0.006789162997145357,0.6309274503972732,0.967078376080593,0.029731649321099098,0.0031807726537588527
22,0.03094567560650239,0.7412060429800097,0.07298293215434906,0.15447613790328027,0.426949957494278,0.004156358151319012,0.6308417710728904,0.9710441360324293,0.08283815320940306,0.010077625358459495
23,0.03279513488806646,0.7394074050743045,0.07272071861775026,0.1544945059103795,0.42116764888635166,0.02098132048092472,0.6303992066491706,0.9746426046962172,0.07663099386112991,0.025194745242813375
24,0.03581626836286484,0.7360552783437067,0.0722085611704949,0.1554717512553851,0.41394972964181626,0.03916505452796169,0.6294155381843219,0.977811444957945,0.11229899713818306,0.021933312452955586
25,0.03927702053645752,0.731779075128685,0.07184621197925414,0.15582321396264526,0.4079206652210559,0.05651023654507775,0.6284695714338382,0.9806332152026572,0.08478840855103285,0.02517150278290713
26,0.0409234481355813,0.728031862103621,0.07128939651718275,0.15687802348772084,0.4059354321570455,0.04224037364947458,0.6274577778837944,0.9831953577642558,0.10040281414210751,0.03507816657197016
27,0.04221683987053739,0.7248486246758398,0.07151519891926637,0.15865092516701612,0.403898438428441,0.030402739499796785,0.6267699606721409,0.9854981857686488,0.03725752552431773,0.02577497557866553
28,0.043605977099838496,0.7221960853351521,0.07244502208637396,0.16073069238828538,0.4013556631214093,0.026291087779306305,0.6275949735249505,0.9875985702434071,0.052830268811644744,0.015073080752571627
29,0.045127073615176,0.7198036890941766,0.07302835041270923,0.16162338878004506,0.3986651214358128,0.020598340147800206,0.6291050357692364,0.989510432745273,0.04597892694455509,0.008404759092124903
30,0.046275615944602284,0.7177792158477219,0.07346271631690693,0.16193176678183166,0.3967674771444784,0.016024922471295954,0.6302165603433334,0.9912492896582508,0.05631177385504885,0.008166431696581104
31,0.04726118091623938,0.7163796319886758,0.07377619846284848,0.16163449041086111,0.3950212557878166,0.01046234251112479,0.6308154644833126,0.9927890844462377,0.04429591722588919,0.004899045160257076
32,0.0478704706135322,0.7153490879667593,0.07381922019189047,0.1615206342058763,0.3942693265054058,0.0061882279763228664,0.6310371045847879,0.9941405911578577,0.04209288433884182,0.0025523045905640365
33,0.047901291730610876,0.7141621574464228,0.07321799845127606,0.1611077468944251,0.39427147078359354,0.0023861524294215455,0.6306467979697497,0.9953624644889859,0.04298413879344035,0.007928507394380495
34,0.04760464600701646,0.7134521406106068,0.07266903716091981,0.16106259624935826,0.39502553677633406,0.0,0.6297238131874615,0.9964686059477611,0.05819165631757674,0.003235008874519401
35,0.04707744016581473,0.7128404186367001,0.07152696003793722,0.16139794631347673,0.3960756162828908,0.009645504526171623,0.6281623324663113,0.9974421594252667,0.05281072057758496,0.007539187914343455
36,0.04646657669427061,0.7128332497440745,0.07068204751568552,0.16216705074906596,0.39731404761712774,0.0051860928819242366,0.6263073662830094,0.9983035171906002,0.05257233812705174,0.0
37,0.04577814792873178,0.7131888346193441,0.06940370554817128,0.16327237910645917,0.3989168870630329,0.014318690890185832,0.6244552015515443,0.9989870291355679,0.03102089933193202,0.005685505895849232
38,0.04508441422894834,0.7139796915805429,0.06797830931946834,0.16439989049841205,0.4002150852858628,0.018781422982953277,0.6222030968920718,0.9994966966127352,0.06079106385942703,0.0062881101148664345
39,0.04412530869433308,0.7146273727742549,0.06613500570409116,0.16557040113583546,0.4015711698618444,0.028850053747070125,0.6193229254110649,0.9998568586309723,0.030731352270414465,0.012107233574971819
40,0.04332322823678092,0.7160521065266092,0.06439958618583652,0.16643210262918254,0.4030845074225274,0.02905701291195236,0.6161800828808905,0.999997778204483,0.10396509684411413,0.013644196652936277
41,0.04237460038859779,0.7180155897144521,0.062049044049976736,0.16779605011141102,0.4044714669683055,0.04570944903991187,0.612765630801893,0.9999200262688646,0.03116745756825073,0.029021066792395352
42,0.041548210350742174,0.7200760404539375,0.05975727226439294,0.16926693881611618,0.40552858187317614,0.04520079724269945,0.6087129624923399,0.9995776913368304,0.07437773654991474,0.021522117437806153
43,0.04059240201722129,0.7226942742380863,0.056862451132853244,0.17126876768371874,0.40701070575859877,0.05819358352092661,0.6042729911099622,0.9990032693964579,0.04186971345626583,0.038254358314825945
44,0.03979540166846008,0.7255954814312375,0.053670465400582665,0.17366368518531827,0.4081031415877315,0.06554637350404205,0.5994011312662836,0.9981360319073357,0.04013378295337522,0.04466364963148898
45,0.03877744129393659,0.7283620870315444,0.05027240835529992,0.17631861373477456,0.4094683869933953,0.07219475223817598,0.5940619196983167,0.9970269349757713,0.03611689900295116,0.0457636305648476
46,0.037262126744881066,0.7317636039581268,0.046804610292967466,0.1796062184135134,0.4124087084052424,0.0799720487764468,0.5884569113757385,0.9956631186957575,0.07802553541928686,0.048136681147240026
47,0.035485161361512314,0.7354558001651339,0.04251920302454409,0.18304843834642964,0.4164989095028019,0.092769260252367,0.5821372509079411,0.9940270038881611,0.06167128297898663,0.05099942017340135
48,0.033323545774757615,0.7395594924696729,0.03776225343913835,0.18645870493473335,0.42205653917956054,0.10422335708756959,0.574723972094568,0.9921239869177803,0.06952507830464519,0.0573358674922666
49,0.03069239145849617,0.7436602725621284,0.03253867542879744,0.189922517180287,0.428745528206237,0.11671721233526865,0.566448157180785,0.9899595298018455,0.06798518785726812,0.058480605459093074
50,0.028076548428843693,0.7482413399012765,0.02674211545293831,0.19442339570476555,0.4361901352271836,0.13020044900077182,0.557416145422134,0.9874931546881507,0.028592742592253095,0.07029764355974971
51,0.02506132539439973,0.7528693260915992,0.020846149857628553,0.1990999157863087,0.44574086688692754,0.1364287537893862,0.548110557767314,0.9847423339573664,0.04089765428273237,0.07352275898836517
52,0.021930219096409225,0.7572826650791705,0.014245755684532723,0.20439696309052605,0.458039545916479,0.13787665614870306,0.5385973101914944,0.9817127457261775,0.048932266741820184,0.07659009721374599
53,0.01854703683470553,0.761467259949987,0.006657417473637646,0.2101071920953904,0.47344316233927053,0.14875989168200568,0.5282671560034753,0.978424469752201,0.09639516718894779,0.08234852990792701
54,0.014662890121540732,0.7651698549874579,0.0002536998158486295,0.21637123603133257,0.49127697652521857,0.14271068448711732,0.5177579987296036,0.9749052179067341,0.05973871714912895,0.07195007987924305
55,0.010705854590368524,0.7682667492746603,0.007559086455981852,0.2248860586811751,0.5108021713576606,0.15513168026606805,0.5073968313150524,0.971160422606449,0.22391360054650528,0.07727994524528203
56,0.007376437695988959,0.768428843109356,0.01652441201029744,0.23743040376160324,0.5301325035607044,0.1864237666942619,0.49467593703052243,0.9671395774287597,0.07352214304728506,0.06762371538032431
57,0.005541121783131393,0.7665187000360938,0.02619203141880478,0.25143216341672964,0.5481677047398559,0.20054619834296616,0.4795870033136799,0.96271520919269,0.030614376439741547,0.07213148013573711
58,0.005855510829689262,0.7624482422693503,0.03636865150170507,0.2643054629706313,0.5637874165922927,0.20122335630993346,0.46447321507409345,0.9577881644638683,0.06195780738234989,0.09172664289040466
59,0.008883243875663275,0.7559722769858805,0.047993631196124154,0.27544630064703146,0.5769422305870251,0.20733066348386472,0.4494760065343332,0.9523080730287694,0.1447691444065572,0.12895620307401828
60,0.014569029737493602,0.7470677534432927,0.06129508384313094,0.2855966431293027,0.5883134727602142,0.22377125082504842,0.43330532104800845,0.9462142662758953,0.2537031855898451,0.15113568208809283
61,0.023071574869065616,0.7349968935130193,0.07687586746911387,0.2959553531617513,0.5983559591924273,0.2540235906229166,0.4146299513781436,0.9395022874029265,0.36672798210995794,0.183919103045154
62,0.034961975049834684,0.7193128161355655,0.09505695589149672,0.30667704931306655,0.6076049378480115,0.30124488865823673,0.3930486064718056,0.9321171553706067,0.4734425302585384,0.23010701411976983
63,0.05143318453981792,0.6990405278961492,0.11677575457392733,0.3181518325666647,0.6171724960515351,0.36158954447754155,0.36785043338319756,0.9240252616904374,0.6245387773894371,0.28677128611819525
64,0.07506214180706701,0.6722712896469163,0.14446966473587355,0.32998383968114114,0.6331912721637355,0.4433270800932413,0.3373075686688105,0.9152884970537694,0.18604779401100976,0.37213531480192463
65,0.10556504866968827,0.6422707845190896,0.17546174299000813,0.3406519091462123,0.6574327287428156,0.469925863652129,0.3026668724233686,0.905978131432633,0.5367557576694623,0.4056029567450698
66,0.14754020844904667,0.6061661715406146,0.2110893936681973,0.3494756977613629,0.6857807904249905,0.5428079139782843,0.2645006754284448,0.8962048018793884,0.12196886752768288,0.4699666977826459
67,0.1960095515894233,0.5669297091468186,0.24576584373498264,0.36176457163985115,0.7152091013903993,0.5624919367853476,0.2241206245407043,0.886006578602222,0.041525718488485866,0.4849244515985126
68,0.2489131334448278,0.5279925823490241,0.2784789925398154,0.3804189017890119,0.7489235185136648,0.562754802301689,0.18505883844107002,0.8754214678200278,0.21206998282182787,0.46137690665550307
69,0.30468822650744865,0.4905492949488192,0.30850240975465626,0.40269404272224907,0.7880485559923976,0.539589758359985,0.1486732625372127,0.8645167119962581,0.03385556096234734,0.4071622251598648
70,0.3673724046729274,0.4541288998046049,0.3372817261698255,0.4278839869570338,0.8264141556919591,0.5405358320778304,0.11488774492361171,0.8533406656323377,0.3463670579377777,0.373015858348367
71,0.42972555470919177,0.4225488964729082,0.3613012131366267,0.4494169874056683,0.8557378455236493,0.486504570224199,0.08525347705032252,0.8419675473344882,0.05465866785839431,0.32903175528849027
72,0.4980005698906733,0.39239363402487637,0.3830357805791929,0.4636457599945248,0.870165217697123,0.500099183125869,0.06158733638710839,0.8304576209391658,0.1875526290103485,0.39087637177509305
73,0.5647858405310907,0.3638509420989851,0.40071399055334017,0.47056769301967594,0.8699169546814327,0.47167398923325154,0.043850481962601974,0.8188902280341882,0.18927589103710613,0.4222495289925621
74,0.6272129320745139,0.33581176904478477,0.4145090174759355,0.4706656036235185,0.8615803989777288,0.44125260577825987,0.03228194692051803,0.8073691735100891,0.09515849590078729,0.45979227576752507
75,0.6926368094692574,0.30424318840491515,0.4267167767116148,0.46650286529966667,0.8523195967995861,0.46981727709188476,0.02462404452327964,0.7959748249939989,0.05654328233931912,0.5163455361833882
76,0.7582148871836384,0.2732993222733785,0.43706068058259584,0.46215032377003656,0.8463899527198048,0.48724838886851285,0.018949179648267422,0.784735221788399,0.2453947663235994,0.5690644727666345
77,0.8297409886095802,0.24136308978843363,0.44640440603291354,0.4617845799956973,0.8450513811804673,0.5478945685449192,0.014325872974327697,0.7736522833464091,0.2953223603414942,0.6247484785129892
78,0.9073325959043312,0.2061743731101772,0.45383046497283364,0.46877343442256997,0.8416181592821277,0.6260742374789464,0.010221317135140415,0.7627092257432622,0.005915164904655226,0.6646282108265626
79,0.9606424096717475,0.17171441453054903,0.4573867936476266,0.47960156189116243,0.8379491403598834,0.6368808714036975,0.008021450755655099,0.7519500785038563,0.12540075113534194,0.6585406978241907
80,0.9450449639277958,0.13367840852863583,0.45641746802457234,0.48649564124205386,0.8371933054410072,0.6330210234389756,0.009562496076585358,0.7415198519826174,0.0425344479291808,0.6753189933929747
81,0.8742238583380773,0.09347454579606233,0.45112742156872976,0.4875096144050088,0.8445804416735482,0.6498613441923826,0.015623547008345152,0.7315009235717006,0.08437695241194769,0.6371944180021666
82,0.7896798282273684,0.07012307546523024,0.44197421012975774,0.48888538290430567,0.8601002060978141,0.6242388321180814,0.025624382820420594,0.7218740698762157,0.27804395986349867,0.5911036072933369
83,0.7103364347359672,0.0726367166905278,0.4299513662907143,0.49336780289641563,0.8729856533773684,0.5221903516634145,0.03806061371055517,0.7125842665395866,0.1260227122095317,0.4778891602426617
84,0.6381862417129457,0.08511568588637272,0.41595196979231186,0.49497269911992187,0.8591411877193518,0.4748899463485025,0.0520986071563381,0.7036433250351574,0.27938670032137186,0.4173041159593857
85,0.5820980142281555,0.09577274325744928,0.4028980947349962,0.49012253992090155,0.8296591012048856,0.3772659238770777,0.06611456919443588,0.6950734694323418,0.16153831445781117,0.3325822978454387
86,0.5394065921801322,0.10393459402952351,0.39158357635124375,0.4817912481057132,0.8039961983390458,0.30991741170744846,0.07831828574517387,0.6869009425673974,0.050994761171055294,0.26102636538433865
87,0.5054800537094025,0.11032195413979742,0.38188806456369684,0.4708771926691341,0.7859569726319048,0.2766433592220356,0.08856028164641647,0.6791518753130341,0.05294718983361582,0.24120097158501028
88,0.4785372372267885,0.11615196102504659,0.3739845324002043,0.45957001059215014,0.7751278581522802,0.25058382450352046,0.09658317698652441,0.6718326167473578,0.016100809602315788,0.22459137281860309
89,0.4556813712905748,0.12306994506867172,0.36724301487250965,0.4495514150582372,0.7699038833253604,0.24402333572727278,0.10296513314133597,0.6649080448565009,0.19671400588337395,0.2249944718617501
90,0.42604051334619086,0.1350845262382376,0.3580738131454817,0.4413424590234117,0.7672362929192128,0.31003999639531926,0.11099200276401547,0.658343461251332,0.04955244170822279,0.30037400324252644
91,0.39540807996760974,0.1495197615963646,0.3478026509879236,0.43478833627855556,0.7643895712434984,0.3308263305141467,0.12208544343784443,0.6520661414852733,0.01076651057832512,0.32757281480012973
92,0.3634202985875939,0.16672026897977185,0.3363298206968573,0.42869990305439487,0.7576935041992549,0.342215087838023,0.1345860700034028,0.64608578285326,0.09059227918227347,0.3123323027761063
93,0.33535171081459836,0.18501729699914424,0.3247387750520279,0.42275092286145916,0.7458733566635202,0.3141686627947707,0.14756931834753761,0.640395841377329,0.14355754313933086,0.27396241527462795
94,0.3094455407347301,0.20361720166318462,0.31312726828293547,0.4186512778355612,0.734025219525689,0.28596921663314306,0.16084185611551155,0.634961638047172,0.15146436964408377,0.24474677685522217
95,0.287295574400346,0.22089154260954724,0.3018846055009253,0.41576009953758375,0.7182522802977425,0.256419626885712,0.17427159320080665,0.6297513692644655,0.1954017549633134,0.22940545675552104
96,0.2668414926277698,0.23776266202260757,0.29004077636028064,0.4135319449484703,0.7002123233662931,0.22225246764985052,0.18803665398246167,0.6247429328959434,0.12563078373853245,0.1955525773968145
97,0.24792474802909692,0.2532972774650359,0.27818335346089834,0.4113323985143236,0.6838456958992755,0.19974764777401494,0.20183389767424495,0.6199664628224234,0.16706577790575552,0.16112963521798274
98,0.23349489353016945,0.2659836441474658,0.26849847501351964,0.4083677938081185,0.6709067636866057,0.167191160553043,0.21354608636064518,0.6155143318098818,0.058119594058637626,0.11496830306923315
99,0.22208895322063413,0.27656821627663725,0.26094769585454414,0.40248141197482196,0.6640118877423409,0.16004158100566637,0.2223479114621961,0.6114386674027712,0.06789977035173858,0.08627668514497462
