Frame,Center of Mass distance,Symmetry,Grounding,Arm fold,Leg fold,Kinetic Energy,Potential energy,Bone length coherence,Torque,Center velocity
1,0.0967830330865959,0.8800581283826645,0.7041192684905067,0.06493520257651289,0.061239147412784696,0.09919308109821588,0.9395954013142375,0.9165444772668463,0.05601565419158155,0.038231316187276675
2,0.09925837867745267,0.8737961458911722,0.7074923728226848,0.06943371982402607,0.060763818532418544,0.09919308109821588,0.9395954013142375,0.9285591902153325,0.05601565419158155,0.038231316187276675
3,0.10241203700437047,0.866622156942405,0.7112165541354556,0.07380521022824145,0.05867411107406154,0.10722792599339863,0.9453841127327675,0.9392537042930477,0.2956114146602586,0.0494857009873966
4,0.1044458304075239,0.8615191613461486,0.7124730538372782,0.07601170951861573,0.0554836582315808,0.05578443863531165,0.9494177159967767,0.9490083744251722,0.042840698166056415,0.01869918078453075
5,0.10696235005727626,0.8572341202755166,0.7143728389978664,0.07471199105413569,0.05002632686154618,0.04647755715304758,0.9521380145384243,0.9576534902076022,0.06401870875126034,0.014127069912539177
6,0.10983716614609762,0.8539311263625439,0.7161432676228824,0.07194931213568075,0.041164139852969316,0.03786065570449,0.9550351401456868,0.9651469173852056,0.07192591188687332,0.008304815829801294
7,0.11252933325517693,0.8510822061139011,0.7170706554765796,0.06844041340929348,0.030130150820594444,0.03206594342802831,0.9569649038873739,0.9715992493757465,0.03174670611523895,0.0035118661238812483
8,0.11457503782874105,0.8508643244923761,0.7174139347134334,0.0651618858413103,0.01918831984735424,0.026392361511920186,0.9575713145314992,0.9767134944537109,0.03164531519873522,0.013877687106109397
9,0.11637548791573916,0.8512994919867026,0.717854803402886,0.06285026834607232,0.00953533010166535,0.031177796158482266,0.9581497258110013,0.9809135963602676,0.04645852153453844,0.02713634499081179
10,0.11731837282305073,0.8515753778748784,0.7174809011848974,0.06131679768329165,0.0045016938665144585,0.025721545548331202,0.9593052005467675,0.9846314907086664,0.02276709926629242,0.028529293034965177
11,0.11718091711581487,0.8524636712693698,0.7166271496729592,0.06094030971648837,0.002921959618437843,0.022103811237470322,0.9596274118419954,0.9878628053366934,0.039319624124965626,0.019320608915040335
12,0.11637093304740116,0.8543907878973651,0.715665195338172,0.060647505046716454,0.0031339774750996307,0.025206346227563937,0.9588043557959177,0.9906197610006447,0.04604373225176503,0.017343987144260827
13,0.11503483827745231,0.8570976535224735,0.7143398061000923,0.06197326165837824,0.0040726483466204935,0.03413829850177714,0.957092206356985,0.9930382660347438,0.039375194775240686,0.016853672963740348
14,0.11338412684724532,0.8594940190753817,0.7122719028827657,0.06342957212963103,0.0053163997746486745,0.042451575029656935,0.9543523691709141,0.9951180035698801,0.07634454629794855,0.02082013828331222
15,0.11217085352324842,0.8617827104203868,0.7109997346656884,0.06367435434760073,0.006541382728697358,0.03092034820008193,0.9520410735142751,0.9968823372177941,0.024132355272456975,0.019313089644821722
16,0.11116612788010488,0.8641364350988787,0.7095553669505609,0.06333855587100928,0.007063557667220547,0.031333749864350446,0.9506810885456307,0.9982541438180226,0.03875972638914397,0.024138623304174857
17,0.11049740620035907,0.8664684176437148,0.708141508617804,0.06231882773223791,0.0068362547775984205,0.026715577263391965,0.9493975816996595,0.9992003386451808,0.07114848804002123,0.023738583077896728
18,0.11056492927648394,0.8685901195435303,0.7072615239055455,0.05985799557455268,0.005057484281283893,0.016950963519282998,0.9486793910497605,0.9997864479702997,0.0408771385189583,0.0209320674257057
19,0.11086654348091853,0.8709048864888824,0.7065306213428336,0.05784923270081311,0.003205708864261215,0.014711626606128746,0.948873619496102,0.9999981558371056,0.03476577254241251,0.023927524942299192
20,0.11081823565641333,0.8737083794424036,0.7057051315805754,0.05653788826674477,0.0015768043963201928,0.018233663715036617,0.9488290997390637,0.9999004251111314,0.0343641100905719,0.016153235750238353
21,0.11048387104793193,0.8762139256646256,0.7044959214214271,0.05678990034324896,0.0004995889182511665,0.024535417767173877,0.9480330706847053,0.9995715148746125,0.061259185628120265,0.0236808375152157
22,0.11019624344172316,0.8784395694367322,0.7036560938722943,0.05700742840076638,0.0,0.015760757221465884,0.9472713464395758,0.9989909361990579,0.02934691046609242,0.014715977133119689
23,0.10949339412028729,0.8808363656879319,0.7025045269717528,0.056656006521452223,0.0004379257191714873,0.020479267618308872,0.9462171678172494,0.9982161085105126,0.025730387893807796,0.013321705062730912
24,0.1084652903953664,0.8824517239002113,0.7009240922797708,0.05709272986495589,0.0016025077642450487,0.023652003006853287,0.9443710223164875,0.9973049315731991,0.03248982295603571,0.014100069205046552
25,0.10694398992700957,0.8839491582852239,0.6988989427687501,0.05724948321556286,0.003927148698558553,0.03028554131370005,0.9418632901363616,0.9963124485388596,0.027213914788976674,0.015959634459259433
26,0.10519399820634559,0.8853483628539522,0.6965478459466051,0.057692983015400406,0.006568457542103099,0.03468392073059797,0.9386571459528816,0.9952512192568649,0.025607667826422088,0.017882294540286277
27,0.10326578618879352,0.8863031805773768,0.6937366173302874,0.05826034276430142,0.009538551073833482,0.038225653147217015,0.9347369075668642,0.994178841668292,0.03242238437601104,0.018163328447667066
28,0.10127427106760609,0.8872045421013931,0.6912165342322781,0.05875180573440933,0.012391672267059346,0.03591363207269713,0.9305313410659404,0.9931015806098589,0.02498698359550537,0.015514765118262667
29,0.09926567825897806,0.8889093440531135,0.6885854002281188,0.060306706595700046,0.015388055976463305,0.037542401209168276,0.9264391424783637,0.991969795623327,0.14333415491733625,0.01524537217401143
30,0.09831659352073539,0.8898007757083217,0.6870497640201976,0.05999738289689885,0.016943825502691093,0.012643855094830387,0.9236739575612544,0.990722324237542,0.04043266147335856,0.0087580327772821
31,0.09785242086733738,0.8914919079800439,0.6860815698675797,0.06121995929793177,0.017290599861648902,0.008753246855827913,0.922479530185251,0.9893364275130879,0.025246460649879038,0.004858935689164315
32,0.0980663884591071,0.8934059805926583,0.6850912726411381,0.062487910619902214,0.015155062686063132,0.01321684965383467,0.9216645122947403,0.9877665000423393,0.040052195999827206,0.013662989749614054
33,0.09883063485639396,0.8955452456936095,0.6846379405444192,0.06396376321868363,0.011291615080977245,0.01156190676648682,0.9210958566333904,0.9860332325977826,0.03730805164313014,0.011637391242505983
34,0.09960507230002008,0.8976148142071791,0.6845305897123014,0.06571933955188236,0.007706205073306129,0.010711925099813084,0.9206468910868495,0.9841709026433579,0.028959185282957947,0.006011103850096576
35,0.09963240829729603,0.8995544082285207,0.6837606010605258,0.06693828019175119,0.00634629932387186,0.011130041301946638,0.9199518357796882,0.982201007805234,0.044127841282710405,0.008677983529705637
36,0.09883997982660864,0.9010771048539143,0.6820925411504002,0.06706072822301239,0.007293227561224506,0.01812285127376792,0.9185375700277326,0.9801804579438159,0.04191172050670333,0.012572841873357336
37,0.09741801635401735,0.9025098919337888,0.6799115179065766,0.0671275975392068,0.009533838926632572,0.02670453146524116,0.9160047202603034,0.978116175066278,0.03223675471530053,0.013016820149197004
38,0.09589576521734226,0.9040717549051599,0.6776758698855936,0.06732437499485028,0.011653846520512084,0.03252559958980833,0.9125803095808327,0.9760307375076847,0.0261568374077372,0.012809200506811643
39,0.09424863088946073,0.9051552236955792,0.6749464161510659,0.06733378529925226,0.013997072890063253,0.03599006832875145,0.9086662674958023,0.9739186597220393,0.02980298728646946,0.016413624218187175
40,0.09249798142069943,0.9061377047276487,0.6724913358887404,0.06679675787911708,0.016698611541525597,0.035275907023716205,0.9046954786090311,0.9717834363355212,0.05027799210898277,0.015587178822661751
41,0.09102998136614425,0.9072510933981971,0.6703005999505822,0.06559849025867076,0.019177550939666697,0.0291085124389775,0.9013521661629079,0.9696015395019514,0.0879248193845489,0.011777126325321687
42,0.09035209683192102,0.9083000695089636,0.6687667732086899,0.0642854585457104,0.020532947290972953,0.0168122697216749,0.8993635265923824,0.9673633427602156,0.05482563254109224,0.013748468752307584
43,0.0896841884276902,0.909720452070696,0.6668744693381404,0.06417311053649173,0.02072785899987789,0.028243798184253974,0.8978430923179583,0.9650488165901882,0.054962159842443736,0.019723457149092228
44,0.08931336974706737,0.9111149404767677,0.6653203165316633,0.06477416781390552,0.02036556684110759,0.020908514020458263,0.8959821036749723,0.9626822946561083,0.04121225515600504,0.013091691524030079
45,0.08847818887724568,0.9124654808279031,0.6630299707057441,0.06486873488520856,0.02095845438193388,0.02813250031374634,0.8936337414536822,0.9602892066463132,0.02929974135948022,0.015025993947713229
46,0.08745113837302637,0.913242861417666,0.660589390514242,0.06482038538377867,0.022492433967359903,0.026586852784990588,0.8904534305916022,0.9579034524415316,0.03157045043469641,0.013885999077226577
47,0.08586530713975112,0.914778006603378,0.6579734138308987,0.06550778383001046,0.025313671706482098,0.033034956221405246,0.8865437587362711,0.9555298419941718,0.043340898587761065,0.009528145646803437
48,0.08393856082202007,0.9154528745072493,0.6544574590528072,0.06642159813759241,0.028835187438080435,0.041294496932788013,0.8815707036179647,0.9532021639840315,0.08237120593075704,0.01843141345627166
49,0.08219105165116897,0.9151176573155956,0.6513139053661781,0.0684417704189837,0.03320936261903562,0.029119984078427776,0.8763222751920949,0.9509308764776211,0.0914739379238175,0.017511690209855612
50,0.08029307471091081,0.9155308424486291,0.6496037733423313,0.06970717116006955,0.038671247464541786,0.018996499274464843,0.8722585157219628,0.948721154939863,0.03234662277352275,0.006699749475714386
51,0.07811936143501819,0.9158704344961563,0.6474921914001907,0.06937069539465908,0.04436312902387204,0.02491510744093536,0.8686201545218896,0.9465774683437714,0.22361362809109955,0.008830422622132465
52,0.07514665339284589,0.9161476111736258,0.6425344005365725,0.06768934725884207,0.050085366137586525,0.06478768316804648,0.8630896638245135,0.9445037786053369,0.2053816747964211,0.036502611392447364
53,0.07286824543908628,0.9169569687306844,0.6402519092537743,0.06493080388915062,0.05563455592479909,0.03274807658839625,0.8577359230448641,0.9425145483647045,0.04929473234313227,0.01063363190925815
54,0.07050388881523403,0.9172261281673889,0.6371191393355418,0.06210933526637485,0.060559103779612815,0.04185390794517829,0.8535142990087664,0.9406187734467403,0.1348207851160849,0.01995486064790546
55,0.06888523945020901,0.9175592549352075,0.6356856689875748,0.058687562120472804,0.0639409948194492,0.02075468961666057,0.8499722928714468,0.9387865009798647,0.08519526696208063,0.0072859569940320465
56,0.06810921342192472,0.9173528905968117,0.6345062703898174,0.05635013572991088,0.06521013842658765,0.00684035123549813,0.8482181578780287,0.9370022956927541,0.0621573178232717,0.001706964099194516
57,0.0684966910669197,0.9176363050666841,0.6347419959396177,0.0560569353301595,0.06402739686233558,0.0,0.8483193037171562,0.9351954406785051,0.06321909025932852,0.0036965330953839296
58,0.07014245507356791,0.9178632790722309,0.6357375998511842,0.057940530899418474,0.0594712668907386,0.015265705749045186,0.8505174289641895,0.9333540722965606,0.02938869871576601,0.014433844443284015
59,0.07260853479691302,0.9177830466644303,0.6361804078338248,0.06278858150855574,0.05213880467396045,0.019679775165863236,0.8530561220094821,0.9314573347210736,0.026339232187697268,0.017576641398081707
60,0.074998502600316,0.9186854783492703,0.637173358402829,0.07013385046520867,0.04543287090833259,0.023912583301052625,0.8549511610816146,0.9294754330469869,0.07585445565386348,0.019092917284498835
61,0.07639736961400077,0.9198625343036217,0.6371166563911254,0.07878211139533065,0.04146914604076411,0.015500854518058018,0.8557442642719121,0.9274303200232619,0.03058937237553659,0.006445128986975001
62,0.07623782404836729,0.9215236691451595,0.6360247694127477,0.08596796577064127,0.04182948636815436,0.011164786559506942,0.8546157598476529,0.9253519838222067,0.10682206568531402,0.0
63,0.07434972987644574,0.924040424266391,0.633852193048458,0.08773223465632803,0.04686541356740478,0.031747200222836204,0.8517101456372292,0.9232431820532346,0.03560211103034487,0.0038391918077772275
64,0.071454946296265,0.9263743238954851,0.6308728220328095,0.08443519569817039,0.0548818335893756,0.041189524141985935,0.8474923447990703,0.9211210631666468,0.06308295553841414,0.005500220708860601
65,0.06820373648338171,0.9295987409547908,0.628119212332506,0.07492353514868008,0.06331065981323539,0.057108824943932913,0.8433971453644942,0.9189629309120475,0.03265653555874982,0.023709931858469455
66,0.06473249867648492,0.9323486275262765,0.6261040676269276,0.06576953927776333,0.07225775218693718,0.057791457750168335,0.8401563059921644,0.9167599753080279,0.12103523671771663,0.015524766263298346
67,0.06073797047313145,0.9353466951297297,0.6230737394513621,0.06961128549763444,0.08141353343135312,0.0810108766358133,0.836470969845845,0.914505984806457,0.045352201687415834,0.02909617200038291
68,0.05711084115614461,0.9376199749093849,0.6197003592364712,0.0757677039038771,0.08945214361885132,0.07479146346779929,0.8319750699713518,0.9122091220935541,0.1592995861525707,0.024546056239269393
69,0.05474527769799682,0.9391765269015566,0.6171318587223434,0.08138043978925673,0.09516248347188065,0.04826506874283991,0.827762893896146,0.9098210732696553,0.1011217701547633,0.004999481283079185
70,0.05403772513995679,0.9401094429781562,0.6145826943407127,0.08482483350668589,0.09728617375302348,0.03283388538608577,0.8242196950657774,0.9073151862013176,0.04676912918183121,0.010315450868879219
71,0.05519090949059067,0.9399710744583224,0.6116594654571446,0.08670994651886785,0.09421161003012626,0.042874056381536185,0.820670793303854,0.9046515592174726,0.07165320301483102,0.021613969309872607
72,0.057486109452103425,0.9398214566080906,0.6078723666574318,0.11109232017252528,0.08678652266742548,0.05924452653149383,0.8156324149893416,0.9018049452767897,0.1002838713648828,0.02761844137667614
73,0.06046324496693098,0.9404218667123898,0.6073969396010865,0.14461753267375518,0.0782816312249818,0.058964823583285836,0.8110800386260177,0.8987917449637987,0.8620287287070846,0.023378185804782497
74,0.05993987907214845,0.9395163978802141,0.594426208368319,0.17862985146328805,0.07334918385192181,0.17804117899317726,0.8008618045129788,0.8955705697779699,0.6822327043411373,0.12787123120837787
75,0.05924867518915981,0.9435828081911644,0.5899560483139945,0.20970485829742896,0.07399747888027602,0.080227338591285,0.7872978625995574,0.8921892762685283,0.1705588649945422,0.020357144293017753
76,0.05612236657255752,0.9491543886503256,0.5831704127642825,0.2331759269961988,0.08230861978440476,0.11014857826845385,0.7769930487731371,0.8886646244696512,0.18594219811257437,0.04038846029781947
77,0.05093730862749221,0.9549095027647913,0.5731943234667439,0.24559630233735247,0.09736990932561634,0.14657741466098265,0.7648587071979908,0.885053448496123,0.16072311584916196,0.07175014956176355
78,0.04420847423164863,0.9624981766255244,0.561413661001366,0.24662731272197885,0.11789845520320703,0.1830692148302194,0.7512650625060292,0.8813741885529199,0.17224065214544312,0.09561148087761398
79,0.036276300666960574,0.9715195617873355,0.5493457234898582,0.23388599108643737,0.1419571482391993,0.22316948400666417,0.7379485251582167,0.8776308963243524,0.20194638470931198,0.1316193778023815
80,0.027709343036129735,0.9823003802127319,0.5365596957333946,0.20961231601297461,0.16900422064029946,0.2662876536951075,0.725576653062539,0.8737876351275352,0.04485305070652131,0.15599415420570664
81,0.019054302676698005,0.9913845735614186,0.5240701282945621,0.2515206339857071,0.19847118484958182,0.2676359556847005,0.7129948319593022,0.8697866131191905,0.10275780461070103,0.12280023451960935
82,0.01075766538238346,0.9983071650828806,0.5106202455888249,0.2840950377557468,0.2303525574132394,0.2903263872702777,0.6998271550758686,0.8655327649532091,0.052675501440251,0.12507229312867157
83,0.00426333435191601,0.9999999950154439,0.49498610207448596,0.29995908261811066,0.26128411974844307,0.28292660595290825,0.6851486037784931,0.8610019326733029,0.540344279039613,0.11320163831747408
84,0.00035746934872932934,0.9928613535629096,0.4812277013537235,0.3021986241697406,0.2865897899320408,0.20501759533260192,0.671129747940515,0.8562107224598756,0.10837288385226058,0.10444143257704151
85,0.0,0.9780270354951963,0.461629058341063,0.29762554769804245,0.3070027595873122,0.20656641317813887,0.6558836428729256,0.8511722021784517,0.08372099671646252,0.12068087595099884
86,0.001541572784405053,0.9573591454488415,0.44196722195874777,0.29295753999690766,0.3244448889441499,0.20771736413017738,0.6371624197209893,0.8458763804409276,0.9715285608134644,0.13696300301610478
87,0.006387915628274844,0.9257724384437287,0.40902283385028215,0.2995271229602274,0.34581435340212896,0.35164790213903435,0.6086517914517598,0.8403265352338316,0.053105753178459135,0.23908485840494612
88,0.011301284823571029,0.89438102225941,0.37695010528750283,0.3178785203778097,0.37249056790517276,0.3698973542475375,0.57150546928343,0.8345102780006106,0.03432220137216911,0.2690990857178607
89,0.018599096073667047,0.8651090652326335,0.3452058881222383,0.34923119660624063,0.4016188390256005,0.38180219714540403,0.5350402481369666,0.828420120129418,0.23071467230715254,0.2523654496085929
90,0.026925388026879774,0.8427125359994309,0.3153338597320721,0.3786001706972883,0.44249047903743827,0.35041929711328074,0.49876334237191255,0.8220673418783955,0.07860381976239411,0.17938625782049045
91,0.03634390513364683,0.8241636437962986,0.2842127804733323,0.4085331011728725,0.48445236889202326,0.33909379167590814,0.46329264499125733,0.8154600554028413,0.044469903474104754,0.16539785814872196
92,0.048652146366031004,0.8063095156081719,0.2524579986230022,0.43567055381677855,0.5189418863236045,0.336744873995942,0.4285511826324406,0.8086352420718824,0.10522020843739356,0.18249271236932793
93,0.061889045063841824,0.7908925934232509,0.22206169570790799,0.45989363257215204,0.5479698989700451,0.3192871043653319,0.3967523182241624,0.8016089907301042,0.16155390103542264,0.1932402699225006
94,0.07674067875034832,0.7767869618577528,0.19176487285341567,0.4880577308604843,0.5700975936355245,0.3480819140709461,0.3683273364517829,0.7943662119606254,0.18081138646856582,0.23243889735693699
95,0.09315404029542967,0.7628103887029548,0.1605780523670252,0.5247103657621357,0.5892931397067867,0.38227750967016,0.3400912560449747,0.7869230528465515,0.047509225061077465,0.250987410067354
96,0.11146798539510355,0.7454989941905161,0.1295252135087474,0.5583224383623655,0.5996287405157523,0.4023940979397691,0.31378917588200195,0.7793323269076713,0.43609427733996675,0.34826853258005025
97,0.1284653688983127,0.7325206402863543,0.1016561585280011,0.5741802922504197,0.6154041032375123,0.36447665986766636,0.2941932414298574,0.7716863090728537,0.37689574911028506,0.35681490541355837
98,0.14353366247503102,0.7235117841555742,0.07929933752187895,0.574597249113339,0.6330812985424776,0.32186270432303865,0.28236109182794517,0.7640027992395464,0.12241516071362113,0.35164176941391107
99,0.15990921808557218,0.7123414847800638,0.06049585340144992,0.5702767649577806,0.6374229339341466,0.28022255724446743,0.274970017881052,0.7562765718600272,0.03398284163183605,0.345742947009113
