Frame,Center of Mass distance,Symmetry,Grounding,Arm fold,Leg fold,Kinetic Energy,Potential energy,Bone length coherence,Torque,Center velocity
1,0.02955893940276435,0.7611532397128886,0.03341301149797303,0.29762723339904384,0.5501984393585698,0.1016021233099121,0.6135568638123733,0.5973027750678045,0.06928340868451141,0.044784048813355286
2,0.0314162435597015,0.7639177204233886,0.038042034355167675,0.2899148394721051,0.5406002042560026,0.1016021233099121,0.6135568638123733,0.6054379410445141,0.06928340868451141,0.044784048813355286
3,0.03320614445427867,0.7702203789512109,0.0455868829321636,0.2806187293863853,0.5313925103987992,0.12851582716319251,0.6187244529354983,0.6153123642900369,0.03938178712787389,0.07631680697958838
4,0.03527685712083451,0.7778164786785252,0.054357323518280126,0.2687366268159839,0.5220466194644151,0.14877144411129484,0.6261275353072737,0.6257939319309346,0.027610892877084466,0.08827305108952542
5,0.03760080983310651,0.7856262544556748,0.06499613596047171,0.25507174664893717,0.5135171449183004,0.16044939994924132,0.6357304723180247,0.6368141653070987,0.01800434497769881,0.08994474469110819
6,0.039985077438435844,0.7928991783295011,0.07684976466201578,0.23904046334469367,0.5059882778974378,0.16894320733795307,0.6472382953038305,0.6486049487337772,0.023073653484857716,0.08678465831209725
7,0.04178451943147298,0.7990551584392942,0.08845131533736299,0.22610323952123382,0.5002849674481005,0.16073220805177715,0.6590536309706777,0.6606499351872988,0.031583526984294875,0.08790896905109545
8,0.04365879405081394,0.8053129538179162,0.10251132537792884,0.22242267784464045,0.49553861649585257,0.16685279895449515,0.6715445803761825,0.6725031206077562,0.01496564715525125,0.09556781925673752
9,0.04621772544134848,0.8106541230355396,0.1176227701324538,0.217553435174693,0.49116969961890666,0.17007092094436727,0.6858513437823529,0.684202132361014,0.07276658870705711,0.09609138361794384
10,0.04944185350704418,0.8127284038314047,0.12989043667336178,0.2112714253217771,0.4862990911936962,0.14721150666298294,0.6996554387410794,0.6958230713988138,0.09486587005282442,0.07718964512415283
11,0.052668624584864585,0.81258739408239,0.1383029733304172,0.20370880378265688,0.4818213636261521,0.1156799494912017,0.7106618179360003,0.7071018182897144,0.05547625878474338,0.05758330353660524
12,0.05545576981005131,0.81066388335244,0.1453426853500363,0.19628409010878609,0.47816627196975203,0.0993665413204199,0.7191707186677175,0.7182208078507857,0.013797932178328323,0.04338000836484655
13,0.05810226655156553,0.8086215380797724,0.1537365335821071,0.1898613772424141,0.47542091954905924,0.09436574711396245,0.7270976145435326,0.729059071498281,0.04069843621586607,0.03932949230139215
14,0.06134403419512369,0.8062030842257956,0.16111205875350998,0.18565299822015613,0.47152605901857203,0.08111427329563223,0.7349336255873811,0.7393670352139008,0.05884509683231991,0.026141134422896912
15,0.06461052402503925,0.8032534863986188,0.16729771661486456,0.18376634007347484,0.46655029737662773,0.06307584941106784,0.7412332113769083,0.7492606347343909,0.023959085580305024,0.021240177847007137
16,0.06849195812958948,0.7995565687468049,0.17296591297120026,0.1853585141188887,0.4604190938099151,0.06031770149464915,0.7460546408947425,0.7587778844526851,0.013718679218165766,0.012171007000441766
17,0.07275604680332994,0.7943911025490273,0.1784090197010088,0.18917665131482175,0.45390608828744083,0.06665324639771399,0.750448968525763,0.7678465104715216,0.06982945088107224,0.01410278202792218
18,0.0784192853899557,0.7873144914517876,0.1845602275197697,0.19451444958906178,0.44597954545986224,0.09689818959557941,0.7548706309200665,0.7765553018192354,0.024219239755141894,0.028917590785614858
19,0.08483005112789559,0.778696713645289,0.18992127578751278,0.1997794088525004,0.4369903505473664,0.11147388681383155,0.758803711360272,0.7850042582689588,0.07677133936672506,0.040524336626331196
20,0.09192813989291876,0.7682619533443777,0.19612708792880226,0.20406718025709128,0.42855064272746185,0.14244208219501064,0.7623692213560397,0.7932819124325173,0.044182331694456546,0.05770348968202426
21,0.09817081295360569,0.7578253374691398,0.20349759291468997,0.20773418136756147,0.42306343216016495,0.1554214752040299,0.7667413631645761,0.8014986346111849,0.046523843558842995,0.06801698842746087
22,0.10358640204906379,0.7466783466976784,0.2101884020409961,0.21021100133266488,0.42095617099936256,0.168701646259393,0.7720151140304894,0.8097296631990728,0.01201337083188186,0.07406041756383125
23,0.10884403888432782,0.7366862311759603,0.21839094394574468,0.21264872110830618,0.41970671317007013,0.16813280533497582,0.7785261514455277,0.8180040909996933,0.014929631886836915,0.07062316988140518
24,0.11442626337668008,0.7279531692779172,0.2290428657395652,0.21446610830938273,0.41858896945430646,0.1734109124695419,0.7866021978089429,0.8262640040127203,0.042807690779434554,0.07672918288846496
25,0.11932990683651876,0.7203097338204318,0.23875049259896863,0.21651654137330958,0.4181378917575059,0.1575269399164498,0.7949524110781517,0.8345276210176995,0.03974457341396091,0.07079864824378775
26,0.12441707244635597,0.714614611648624,0.24787898418989374,0.2201482686351555,0.41707842174972914,0.14249050470061472,0.8026270668747084,0.8426961798614171,0.05007846821984995,0.06043333492059646
27,0.12889560040311,0.709995249900017,0.25600528202712897,0.22652848165082004,0.4155988036777092,0.12362186847545388,0.8094628374431972,0.8507774976307353,0.08872478987485359,0.05569985402283093
28,0.1314845111196634,0.7062327062981598,0.2612960575027078,0.23515687469802096,0.41547784436549795,0.08703888752350769,0.8145006441236387,0.858794773325736,0.052898164074178695,0.04050759304938951
29,0.13294232208710893,0.7026842766656842,0.26444939094465164,0.24393051008461492,0.41615242937302654,0.0657358391296956,0.8174011806520761,0.8667394517263369,0.050470673811218794,0.03423556400947702
30,0.13431164085412606,0.6992563726219071,0.26561854508692456,0.25115435672985287,0.4156939967667501,0.04539466225087164,0.8188418169485908,0.874547590558992,0.03924942689411839,0.0187103954025508
31,0.13564889633948043,0.6963634012089888,0.2656596674659307,0.255676371256778,0.41397635787422926,0.030196058662275427,0.8194491007643218,0.8821312843518483,0.03515637218993783,0.008251777296745769
32,0.1374073307655611,0.6943564875266428,0.26533154147321714,0.25650261924759393,0.40986313418850107,0.019652700133262743,0.8196194300198761,0.889391810343856,0.010721719907104455,0.0027092682847476854
33,0.1392138433739751,0.6937420976823236,0.2638702752862731,0.2572294110462373,0.4044377796592776,0.02194917655658654,0.8192130441657071,0.8962576719319488,0.02034117210807491,0.01526046241452267
34,0.14136535437741451,0.6937940478147784,0.26247797781986526,0.2562294651811231,0.39793236075147315,0.033216691041063104,0.8186687668690857,0.9027349061786375,0.01640493244483318,0.019964321265315898
35,0.14326446846422844,0.6944597746834781,0.26114794241990696,0.253965522874256,0.3925679750349398,0.04463108281282869,0.8191917613605877,0.9088831864798941,0.013982899058072549,0.033487855386459806
36,0.14446124931663049,0.6937677085537105,0.25846258439646697,0.250972408337318,0.38918017395995236,0.0486665803262942,0.820497413634315,0.9147785358605556,0.011072917756218499,0.033313523193537614
37,0.14537042452348176,0.6945924681257875,0.25617840979205775,0.2487223638676136,0.38591580501449946,0.04495323727954879,0.821481845978721,0.9203852073241767,0.020758986366126293,0.03354368516729572
38,0.14598602508101344,0.6968190689697349,0.25445001482742086,0.24757527114430958,0.382986386403046,0.04689319943953795,0.8220771915000187,0.9256971554376878,0.01314868070743023,0.037779607723625236
39,0.14608401222784112,0.6989740101333191,0.25249568209944634,0.24785578141243259,0.3805918228731653,0.04795338886406858,0.8223486371510506,0.9307397636988963,0.010972913339395035,0.03232370185793853
40,0.14550731767062278,0.7015126244044741,0.2510421030715726,0.24838077569686673,0.37969335328805454,0.048669532907523974,0.8223033192447949,0.9355190735531451,0.011263734827995146,0.028939917885694763
41,0.14440331771414502,0.7039883928202519,0.249749591597331,0.24719665656132728,0.37987944867775597,0.04960403575399167,0.8223118324625595,0.9400177976652494,0.01127520183670489,0.026585731417393448
42,0.1429753840385197,0.7069803755054584,0.24859448318894614,0.24385751485423107,0.38048302964569725,0.05081350035014181,0.8223591125826127,0.9442253638884304,0.011257650558913201,0.02517619171791254
43,0.14110546571617208,0.7105300010167482,0.2475675758071481,0.24069197868090708,0.38176744450096645,0.052686093248197396,0.8222331763068966,0.9481624115760655,0.017474814911589177,0.02255792938266912
44,0.13926446362093503,0.7142818580761023,0.24718841943257064,0.2365772153704093,0.383482482361795,0.04998347263719158,0.8223670783472697,0.9518708287235533,0.013147221766144164,0.021741386528856002
45,0.13727865352748395,0.7188784859933707,0.24745107220501392,0.23325613054398525,0.38554177805197193,0.05459050140755931,0.8230571281524821,0.9553774239680797,0.011537797015283341,0.025143148036583008
46,0.13508750814252599,0.7236417392918736,0.2481675664166245,0.22944473065629492,0.38812936009438564,0.056065533947776844,0.8240319887035289,0.9587237850538056,0.012888651582573444,0.02521549272285829
47,0.1330271173956357,0.7287233642618806,0.2495356944351902,0.22577011784580936,0.39110956124244556,0.05536441838646014,0.8255641513951907,0.961946519286,0.05139217309864051,0.029219242485035154
48,0.1318224577258684,0.7318444435633522,0.2505326915124678,0.22150641877562352,0.39336063284023787,0.035676704719921605,0.8273490006620237,0.9650797159835498,0.03585892777740033,0.023386072023642013
49,0.1313580391098541,0.7333819965403067,0.2512501907416865,0.21797053099481406,0.39452840317110566,0.02189627925476391,0.8288050914740241,0.9681402208382831,0.029125458439566945,0.016029498760526787
50,0.13160830976564625,0.7336872388487654,0.25223367155776716,0.2138546104493048,0.3945934450358877,0.009028455151291028,0.8300366834880151,0.9711292052676112,0.029404162478394936,0.007507232165850017
51,0.13203467287315154,0.7329976528495312,0.2528949584362844,0.2090896776852495,0.3938622903362434,0.0005978327201556243,0.830802994662695,0.9740097319662079,0.021601676415472643,0.0
52,0.1324659798171248,0.7321985026810659,0.253585670269355,0.2048441868631187,0.39252042567419676,0.01116146001799392,0.8308965846140864,0.9767465644914374,0.019539895421554654,0.00872332850122674
53,0.13344681804564323,0.730352929577187,0.2535077593433695,0.20114058398093984,0.39035517533781167,0.020182359447009426,0.8303539870974285,0.9793196015293526,0.03727332719495242,0.01147961027523557
54,0.13373908818498123,0.7274943300808316,0.2507478927462367,0.19896687064414612,0.38920592280689753,0.03149188811009232,0.8285147579566448,0.981710601121724,0.02063050300697996,0.019942653242813465
55,0.13392868882050385,0.7251699062837134,0.24702325827063243,0.19814378826755977,0.3884185010368591,0.04188464406910739,0.8252564853817672,0.9838715724190513,0.01758136415272098,0.024649920002755128
56,0.1347544623069201,0.7238289602557829,0.2453812212824134,0.19809779069553501,0.38716944547972587,0.04195493144192091,0.8222689701877112,0.9857947907593528,0.023185308169337792,0.026524253435263337
57,0.13492817527589973,0.7230986683965529,0.2439806924766695,0.19790825804907394,0.3865626034056071,0.032844856184036146,0.8200521185321757,0.9875438837440078,0.011794626659269438,0.02035063431871213
58,0.13430091124087948,0.7225248064910126,0.24185244267725445,0.19957390172560505,0.3865990152269324,0.03220997390659784,0.817583620071141,0.9891599230999959,0.013396698227500803,0.020185498938069858
59,0.13336225964881837,0.7223316297701432,0.2397660898557824,0.20259281789735242,0.3873764415750812,0.03151282072075856,0.8149136563979744,0.9906553913975047,0.01595509704458601,0.01829626748286079
60,0.1329921842568464,0.7205827468588792,0.23813724556211588,0.2071337336422517,0.387498378869735,0.026840890262215897,0.8124876195863476,0.992072558270526,0.0140497615588034,0.019318249437939222
61,0.13245378139373729,0.7200084340972899,0.2361199595116785,0.21195229482575567,0.3876696633330071,0.033846804644816465,0.8098454798316123,0.9933573744686635,0.013117146847769148,0.021832962902601245
62,0.13117805715148262,0.7196580562460252,0.23445569447548456,0.21521988055877267,0.3886062951578485,0.031706135610671024,0.8070144721481535,0.9945595136126719,0.03793838858034826,0.01909110766868617
63,0.13051724678603405,0.7192527194619137,0.23359228139715293,0.2185422225082566,0.38944208029903915,0.019679096005720147,0.8049255028781985,0.9956340033443218,0.01173117298401451,0.01608968226625845
64,0.12968378541949316,0.7191047047362219,0.23267765654353545,0.2212382522985044,0.3906242785903891,0.018841004222857626,0.8033219115661109,0.9966017309438394,0.011548647683444801,0.013505977418950385
65,0.12855217379123776,0.7196149056086227,0.2312299997657617,0.22327558605179718,0.39180784750803305,0.020782239345954506,0.8013825578570066,0.9974526839866299,0.011695998300035768,0.012559435347509054
66,0.12745584136055887,0.7200799120621729,0.2296964360438625,0.22452145997215586,0.3928163965449371,0.021505770854901126,0.7992311517123216,0.9981831472440781,0.01871251823809439,0.013910217894432777
67,0.12665220124769616,0.7208925956784954,0.2285434210136173,0.22479773034728495,0.393690879651481,0.017714470643248083,0.7973793726293887,0.9987989879886824,0.016269083336057887,0.010508208617206484
68,0.1260075541134112,0.7216038875766209,0.22768057662817606,0.22221192612769275,0.3946310017849241,0.014837709838443345,0.7960334648818436,0.9992959692568224,0.020047841827563185,0.00911912521124855
69,0.1249058833570786,0.7220523493944244,0.22580594424778164,0.21483552093110042,0.39597727335019484,0.023023307247873645,0.7945836643038674,0.9996568403688134,0.015655002659985907,0.01418415765993404
70,0.12339047148793776,0.72272022640229,0.2233957600454236,0.20185387631269763,0.3978964939485409,0.0314521833825441,0.792717713883024,0.9998917439284752,0.05064954139972531,0.01718530647884421
71,0.12108211116240425,0.7237413343721493,0.22006744078160725,0.18257858737843438,0.40010459797491044,0.05604220239707271,0.7904460041125906,0.9999982852097964,0.011915634945518686,0.031933575125387484
72,0.11784496672848284,0.724707869147127,0.21622173355064583,0.1613274384131091,0.4035279732360845,0.05950523389088291,0.7873186136241457,0.9999848913417494,0.01236785399222732,0.024115202631880325
73,0.11390621784924668,0.7265443975889188,0.2131817170696399,0.14329004292577122,0.4085635968300354,0.06219676907217511,0.7837280366658324,0.9998395508923659,0.027007318953392326,0.020372202104957143
74,0.10840928330383524,0.7298102795903738,0.21009021917447768,0.1332053471569802,0.4163898602209077,0.08003000690933657,0.7799924022955902,0.9995371575462509,0.015972341697488537,0.02340840078887716
75,0.10145832560671103,0.7354646793791653,0.20876165943451944,0.13286854203986334,0.42746821646024463,0.09652350387589734,0.7759039245572162,0.9990730921649194,0.0744986473804743,0.019915682322034063
76,0.09261132116956272,0.7445899617133349,0.20782585567325926,0.1425075224547923,0.44112039363199695,0.1385059019631361,0.770759081766191,0.998436623078381,0.06908294212215468,0.025601126567969233
77,0.08268917983187583,0.756875095261819,0.20786076165067024,0.15938700661210733,0.4561906504353702,0.17405361493731028,0.7643055291069286,0.9975939825344782,0.15664710628354392,0.01926894013158801
78,0.07153592798127589,0.7733007326535294,0.20418665259686347,0.18115218416318063,0.4729442172293002,0.23460765094468786,0.757129522396841,0.9964904663411339,0.11400734866128798,0.05652761290914785
79,0.06297660786380269,0.7878397728996192,0.20403353693864695,0.2052463134817321,0.4875618793169695,0.19168929218733716,0.7511052098422774,0.9950968273186231,0.055112001010119406,0.03174847849355879
80,0.055245697788357674,0.8005682368273791,0.20058586570571948,0.22842903479708776,0.4982232530913787,0.2049765859904814,0.7452793142206214,0.9933656662919261,0.0456221128930634,0.044938626612944635
81,0.049728288155272714,0.8117648274760376,0.19612106762820383,0.24916740707493792,0.5044211679039545,0.18073986645656945,0.7381720457604593,0.9912736320206303,0.05293673448198785,0.05203716225153463
82,0.045822862718759565,0.8223628738028018,0.1888142562460415,0.2665499399101603,0.5053534841790345,0.19347777756791984,0.7308849953964521,0.9888220229251303,0.16177273463014236,0.089873262547742
83,0.04220899612592063,0.8353821503636939,0.1765486781807483,0.2778693250112271,0.5030374395829387,0.2534105029487336,0.7226097781299878,0.9859987258637746,0.22106210083398872,0.15106067418471497
84,0.03749637308794917,0.85053285164271,0.1594683500042943,0.2786019214591835,0.49933883501128884,0.3332433037093456,0.7120604865210222,0.9828364084808351,0.22195324876443479,0.1965651586699821
85,0.031971936814796785,0.8681155003927274,0.13873668990479907,0.2673487301164504,0.4953320601277261,0.4133483422520387,0.6985558067409428,0.9793374686385666,0.07534255761464445,0.2414542671109036
86,0.02633852498509367,0.8829650183777383,0.1168523775619026,0.24365262602776802,0.4935918508669365,0.3939451515485366,0.6832669449156755,0.9755406650540884,0.25017344654933255,0.2103291013722197
87,0.020740174769343207,0.8970617988082066,0.09939024074489079,0.2390910500542887,0.497603682015916,0.32814428856338074,0.6712870582510841,0.97151842577973,0.2606847621202793,0.19685180443122893
88,0.014847993697880982,0.9033281011895757,0.08448250570572866,0.25365319054597457,0.5047925946667905,0.24706752239637836,0.6621820580398491,0.9672886429900069,0.35176389704420047,0.11248472506422671
89,0.010017483333714123,0.9031844989333401,0.07508242403943602,0.2673645540267521,0.5130302029335456,0.13860902498149755,0.6540547989555053,0.9629192129119424,0.07270920920538684,0.050744517586820664
90,0.007237557932669026,0.8969918919901562,0.06612667781649614,0.27789883865996334,0.5194665343436572,0.1070421451456815,0.6469463198701878,0.9584074058160064,0.09154924368120515,0.05089669490343332
91,0.004215959273897779,0.8854101734347984,0.05740978260752606,0.2881817716260706,0.5269878146563742,0.14448096975543387,0.6382257388607584,0.9537775494591797,0.15270668814335792,0.08681918428712916
92,0.00187885147872869,0.8689458515613278,0.046500478255548476,0.30198430641822527,0.53590035708851,0.2047913126697449,0.6275508510000848,0.9490401013306751,0.1719276789979835,0.12655338259991697
93,0.0007096433579453452,0.8504425441181748,0.032533880924756606,0.31709432047446184,0.5485722450467626,0.2693868420118,0.6155074710084539,0.9442245438003234,0.09329776513830804,0.14941819110549534
94,0.00016364881010835138,0.8315569813704834,0.011334088525960195,0.3322513001565438,0.5646328337878906,0.30275384550563533,0.5999480244352949,0.93929379849997,0.03437714486507846,0.16276927144873818
95,0.0,0.8169602892443973,0.0018697641731514776,0.34953167760503834,0.5815340358318924,0.292500682265277,0.5840486779913752,0.934182244186007,0.06948653026260053,0.1795936082576112
96,0.0016581635986110054,0.8048646649773611,0.022894673703098722,0.3658141152525086,0.598579092029686,0.25854177690746694,0.5706462790400081,0.9288539585547472,0.05359810570188516,0.11210981263545544
97,0.006109268389355683,0.7911189789695483,0.048390568297007115,0.3760481771158096,0.6108447361799624,0.26981068091954546,0.5555503111404926,0.923253758924277,0.09584790611680401,0.11795811408885747
98,0.011932648402338725,0.7753751359922327,0.08258034564792377,0.38216544830483157,0.6204124970484539,0.30122509097343525,0.5369832937256717,0.9173308512245906,0.08207786513518349,0.15786609265603657
99,0.019026618877621804,0.7539141025750219,0.11735246451861463,0.3905359607902813,0.6268759517172304,0.33208926953555906,0.5155704520986746,0.911098443575951,0.1929410035586407,0.18428199317497793
