Frame,Center of Mass distance,Symmetry,Grounding,Arm fold,Leg fold,Kinetic Energy,Potential energy,Bone length coherence,Torque,Center velocity
1,0.0954139021456324,0.697620183523948,0.9932883024375652,0.5424171658330014,0.4012633112216895,0.020915527429143547,0.5979353843349525,0.9878828221481972,0.026948538923682465,0.02186855968685386
2,0.09633863213099607,0.6958616702066261,0.994234987600681,0.5332646127377192,0.4037206875806024,0.020915527429143547,0.5979353843349525,0.985503869085382,0.026948538923682465,0.02186855968685386
3,0.09696084251867453,0.6946230825812213,0.9950072570641613,0.5313824599409623,0.4058747709057128,0.022140214599606682,0.5963734326077288,0.9835714854683122,0.035008752134846874,0.02948775414039912
4,0.09769793613916274,0.6930303305476126,0.9956945917461998,0.5308341795381539,0.40733168253972657,0.024507332604833492,0.5948592338279179,0.9814194978792722,0.04495574303547794,0.0273362211938913
5,0.09864383729449268,0.6914416380385613,0.9965717607405449,0.5275837419545939,0.40862574861363843,0.0196210283978152,0.5932332069524123,0.9794974010138253,0.020879356649824352,0.01860593071565097
6,0.09968707551042437,0.6899583433989029,0.9975995554567683,0.5253246098470717,0.4097423982642882,0.027242476619969227,0.5914042149874172,0.9777962561249335,0.04974593237215534,0.02833088472589569
7,0.10060584890732026,0.6882641475065258,0.9984184044314293,0.5245687392731728,0.4105091458027774,0.026186233178126253,0.5895537869087296,0.9761048792527234,0.09475887733631644,0.02952677638047402
8,0.10087066565682436,0.6869980731237472,0.9987579081585306,0.5232518222161728,0.4110768672284589,0.014347240903362353,0.5884392088474579,0.974272602622528,0.026847979333062332,0.010811856507478807
9,0.10152111651521768,0.6851928706555811,0.9994001345710555,0.5244042246778349,0.41210496714389394,0.01933166291561584,0.5875389258900865,0.9723859572860966,0.05455695872271637,0.015953465034259092
10,0.10199790487890074,0.6835005998842115,0.9999999892235678,0.5215085002853809,0.41326067494857477,0.01508357723711735,0.5864250578389679,0.9705685877098841,0.023287292523984267,0.01736739463096126
11,0.10264202059984359,0.6821495814745718,0.9992995163534422,0.5186410027249888,0.4139798094307874,0.01783094693399192,0.5852898364175284,0.9688599849631458,0.06844000123154464,0.016779326949576158
12,0.10315264608592496,0.6803831815103534,0.9987845376327052,0.5165082381102694,0.4145789284472817,0.013871529877676177,0.5843832247881384,0.9671010524543605,0.04177575892249011,0.017635028236430293
13,0.1035393499908886,0.679049386363722,0.9982914951252246,0.5146674517474504,0.4150730651380274,0.011187745226894879,0.5838979973025845,0.9653281176592909,0.07815560642624662,0.009998364109395969
14,0.10376594756926448,0.6777286593278511,0.9980485489887355,0.5098514773576944,0.4154685862940138,0.005456623671868152,0.5838533308385755,0.9635426498852263,0.02494636113982147,0.008410910993139883
15,0.10332249948340674,0.6770882138781139,0.9981848889540262,0.505056020082168,0.41536499271407995,0.007545717969001927,0.5847988915757917,0.9617484472237956,0.026059008721554887,0.005330243611049305
16,0.10390816006207323,0.6756821341250807,0.9977305548148073,0.5011670498236978,0.4156884935700986,0.013228072656716676,0.585229437640306,0.959947577446478,0.03566212247055584,0.013884028072732306
17,0.10314519629162844,0.6757355260410972,0.9979529329927903,0.49830278146474144,0.4155167115104924,0.011112121074171963,0.5856161115141967,0.9582857797624913,0.04733392500456818,0.00020573654303385224
18,0.10229905500207538,0.6755943616356445,0.998248946816212,0.4919490595529077,0.4155306989080234,0.0093021185177027,0.5870911862907296,0.9566989844186595,0.02244802559515974,0.0
19,0.10247494751128011,0.6753762512736324,0.9979475041110388,0.48541827044003627,0.4155912051302665,0.015471502128439805,0.5877889707368124,0.9552804158704566,0.020677821940767595,0.023355508275760762
20,0.10197848654799457,0.6758230535597995,0.9978828430397695,0.47851636300945577,0.4160695189391993,0.022995584470661547,0.587823050787126,0.9540793226741069,0.032868849542809574,0.029388213569409398
21,0.10042607084773507,0.6770104376848869,0.9985601585660548,0.4757811348139244,0.41601019679649126,0.022977220281655976,0.5891277070523332,0.9531284533491791,0.05493399695717759,0.010801673818365252
22,0.09767907000132409,0.6796690805459186,0.9996833780168067,0.4715356819455988,0.415589355371368,0.04504721521490257,0.5921430846616036,0.9525512838907966,0.07297078247413781,0.016278029795351066
23,0.09583377688069931,0.6822060350637813,0.9996233219319555,0.46385181043370377,0.414424466614374,0.039468055456879356,0.5951859880686146,0.9523035644986685,0.05681005819926393,0.01923417895344788
24,0.09526079319566103,0.684639451506196,0.9996169808803702,0.45711002188556293,0.4134615161359463,0.03638011499237257,0.5966067460267825,0.9523633736863826,0.028527729587563905,0.03480323164166354
25,0.09420308543252841,0.687790683014631,0.999312360293196,0.4524925931778922,0.4126687386581803,0.0401035204707797,0.597201544131915,0.9527158611060452,0.07460612809647107,0.03434229936063523
26,0.09266272967615803,0.6909919712264294,0.9986209208469063,0.4477357044414184,0.412608480111646,0.031730332758344054,0.5984922839608287,0.9532728506723912,0.02375019552096076,0.023152044020986962
27,0.09010319831795167,0.6948479257916471,0.9969487369929074,0.4431221754454751,0.41135158936442345,0.04518771208441711,0.601187733884726,0.9540247916728997,0.021743200844229305,0.03260225794796235
28,0.08727824677478185,0.6994128471364031,0.9950449502756726,0.43827909919606217,0.408696140076545,0.05800058026680357,0.60504174831241,0.9551269741998013,0.0510347762762745,0.03419144634008149
29,0.08322857051007465,0.7045574829027497,0.9920798833818711,0.43487641721190545,0.40451443120379654,0.08045132298059753,0.610460314709654,0.9564878972513395,0.05661491529313136,0.05798801864384927
30,0.07807880244072578,0.7094399734710058,0.9884233034796968,0.43487413374853645,0.4005679501531809,0.10237390889768701,0.6184631551293376,0.9580162212750684,0.040891891544902206,0.08883048690757499
31,0.0720011755564911,0.7150295528532733,0.9842152139261909,0.4242537436585669,0.3961034985659409,0.12263334493362034,0.6287707214635373,0.9597284967179016,0.023075586279291977,0.0960157269073426
32,0.06495443502359557,0.7208755383160587,0.979521276236957,0.4074225620648591,0.3917769859497114,0.13292676061362568,0.6410599243700945,0.9616083341085472,0.029058660481729427,0.09055457002436915
33,0.05765853982189663,0.7267380578952364,0.9746191137145774,0.3866762125837978,0.3871380035294548,0.1351556168590414,0.6548256315324589,0.9635927372678984,0.04081671931186718,0.07438528797663078
34,0.05052948367769431,0.7330486760414304,0.9697841869363847,0.36050675566977813,0.38155676239344816,0.1379158263631234,0.6691009745392856,0.9657458445237063,0.024899843240588457,0.06081937848176528
35,0.0436103792444223,0.739555578206328,0.9646618236736896,0.32963113643100894,0.3746678159602433,0.1493812796338071,0.6834041394003935,0.9680123902191442,0.04124022325442386,0.07416065827428539
36,0.036735464632784494,0.7455651613740288,0.9598361657179997,0.2920344330193197,0.3685353347427407,0.1482419305688543,0.6975977064912369,0.9703487132816533,0.039907700832094974,0.06863819066704684
37,0.03052262891709169,0.7512353897622146,0.9557584428886161,0.24928680854862978,0.3635010605415186,0.14661498948099533,0.7109352178566253,0.9727282558453401,0.02609310992453513,0.07504579150778605
38,0.024116441086367832,0.7561494164365583,0.951888635931628,0.21099374756092737,0.35986957690370036,0.15347662590253985,0.7230752124173726,0.9751495825753195,0.044597904408354205,0.0868031266367423
39,0.01821194988583512,0.7598000202965232,0.9488178897488785,0.17020555463523518,0.3587874925772005,0.14703545806096335,0.73347107793658,0.9776835442784806,0.057830377797981544,0.09407397725076724
40,0.012105592635820832,0.7626861199196153,0.945577171016328,0.13398169941871305,0.3587488728623902,0.14080936326723928,0.7431467722186005,0.9803378930045166,0.0327822073934073,0.09233043312564017
41,0.006404515239659343,0.7661636538739784,0.942748811898234,0.10185892445920336,0.35831542001210565,0.1557816436615471,0.7526326995098077,0.983156704235284,0.046727534766279714,0.10535612510494785
42,0.0019513463308988477,0.7689080004053327,0.9406357704786869,0.0745735779967555,0.3571566240582833,0.15656887290140176,0.7603713718817381,0.986121623399388,0.03511796214199625,0.12962296862107608
43,0.0022209335413535787,0.7681951521257745,0.9413989918059147,0.03955453314325796,0.35869823750489643,0.17784241397866735,0.7601403400565139,0.9890351139868407,0.08739463961306967,0.21469318051124675
44,0.0,0.7681473137876269,0.9420508695637757,0.02045967983996081,0.36637189218633015,0.1594620464299082,0.756612798740683,0.9919984182791075,0.06262400350033154,0.1597513628005733
45,0.0001741694590325113,0.7650135500351342,0.9463063036741289,0.00671147440983785,0.38189039385752355,0.16879118908872492,0.753029534642692,0.9948586635834574,0.15570145385318512,0.13555123673704828
46,0.0019658727204814952,0.761826302158867,0.9530730443233147,0.0,0.40134303685451583,0.22008353192896174,0.7433493004522319,0.9974224691667005,0.22028304894497963,0.13283684567190213
47,0.007989564424790492,0.7522234668250753,0.9615211935117524,0.008446922602693824,0.4250546191414237,0.22918939338745853,0.7304634633745724,0.9992459290262649,0.02983809631295294,0.12463024035327519
48,0.016699003591688983,0.7373229417836186,0.9696736378375184,0.028877823193125877,0.4451504994028809,0.2445417037527887,0.7177025127698579,0.9999926646438775,0.18738118637929843,0.13746539042635758
49,0.027143918797637452,0.7188799794738521,0.9774858133905163,0.060231262429407725,0.4606225493688895,0.2726651830321691,0.7057538360850645,0.9994993198508152,0.3932275446459322,0.1668288617574423
50,0.041460884997217264,0.6961958195912942,0.9861233113815104,0.10231084738873976,0.47410188477186294,0.34103490039508205,0.6913075850898943,0.9976321274585771,0.5377464752889637,0.2021771248466829
51,0.06096467024821126,0.6677411214245895,0.9971599190218038,0.15200060607407298,0.4891246022704801,0.4416321946751184,0.6709435901704638,0.9942080135047225,0.7851333718595997,0.24764074836214875
52,0.08889351833173917,0.6313004830299953,0.9874216527278978,0.20690724435096886,0.5073701974200857,0.5813947364051403,0.6423458000707929,0.989030586555918,0.7750414427640511,0.3129223527677697
53,0.12855299520888538,0.5869752999603589,0.9660773199940287,0.2838446423870266,0.5329244260110462,0.7323198286343994,0.6010437376986533,0.9819548329548057,0.46716627552791473,0.35129727347921025
54,0.17918940831035488,0.5373375697241262,0.9397934404870187,0.3502651227549057,0.5679535792609431,0.8268933619317028,0.5460491527978575,0.9731059980440918,0.5844303606450013,0.3838158120084502
55,0.24605206101246788,0.48316997228503544,0.9070965068275955,0.39686022496217177,0.6110309667318001,0.9380218071882335,0.4793174388779557,0.9628636734664461,0.0877179864188096,0.5130129870039563
56,0.31925388817395006,0.42805643453229436,0.8748806103436487,0.44879254306887817,0.6492275343307065,0.9415062394714587,0.40972785886069485,0.9513832880293988,0.3035190692055673,0.5654070243518872
57,0.39215100438968814,0.37941959774556977,0.8448420926773519,0.47508102442403816,0.6789608182895221,0.8587453538006716,0.34692909130691246,0.939037326949622,0.3202784856029968,0.573986551692444
58,0.46312258499908315,0.3367872480891772,0.8173178093208052,0.4674673026769533,0.7065996207536188,0.7878398717147762,0.29184025352121123,0.9261797203825786,0.6142275319389986,0.5916194040871858
59,0.5282254248649959,0.29894250154327084,0.7936557413142444,0.4497746508162886,0.7356009627682606,0.6787121045007375,0.24423427267931122,0.9129275652732394,0.5167314837977005,0.4687010057842472
60,0.5862702259808374,0.264969194987489,0.7739116781416862,0.44615732119974577,0.7636319588097236,0.5825754701039034,0.20316198045779849,0.899333943435592,0.6952390674493905,0.33401784768263476
61,0.6325905556928954,0.23827194775264782,0.7585028050902548,0.4636547908651884,0.7901110777343855,0.4502471060498224,0.16868092041649316,0.8854895473387991,0.5239270564984699,0.19683198234331095
62,0.6694140562569434,0.2185348918132232,0.7454156690888496,0.4660593259779885,0.8172131079737981,0.34977165030654134,0.1394052330757116,0.8716161009633228,0.198624209794346,0.13883895470167373
63,0.7024718809867857,0.20076131108393236,0.7339937726807747,0.4609071060876484,0.8430291495774879,0.3100635509519919,0.11460306542965475,0.8577647919419612,0.2734990330171667,0.14216785197398912
64,0.7272414662456594,0.18570965265616418,0.7253572604216975,0.45561793296839825,0.8657015845622,0.2514031872694124,0.09561457705712256,0.843908150934188,0.17325859596023202,0.10271276020322068
65,0.7484717721154873,0.17126035250080401,0.717880292570133,0.4518139010631758,0.8868032145746961,0.22956144538492387,0.08126676544550056,0.8301264568521811,0.004946120992663982,0.13919330082054426
66,0.771424035993,0.15524748365090513,0.7102457841608548,0.4482287173349789,0.9064751822802755,0.2479539422835046,0.0689905836303686,0.8164609113887168,0.0130184267486854,0.19787661480291968
67,0.7952025004517358,0.1411149204612651,0.7027041405256044,0.4407025593096453,0.925438806888437,0.243094045773008,0.0571740243175389,0.8029830461302533,0.37156545604359675,0.2060946382476331
68,0.8326132920959981,0.12117930670930714,0.6921500118776218,0.4347180341359394,0.9458179379967564,0.3405114285006637,0.0419462197832389,0.7897660697074302,0.02600630162965359,0.33400070571940704
69,0.8696095765711485,0.1025458036360576,0.6818721235650548,0.4159734448438774,0.9660087372036649,0.3671234846821005,0.023788751330871744,0.7768038112467164,0.06167716159204139,0.39431090687124826
70,0.8966507674585578,0.08875710006219975,0.6741419550225815,0.3817137618653484,0.9813392526346747,0.3523646811377504,0.009628403328369712,0.7640592061966527,0.11171997130456689,0.4005867863414583
71,0.9174073562214007,0.07650144571501226,0.6682722892674966,0.3392525439780392,0.9936378877798377,0.34593393859148464,0.0016148790396746798,0.7513590803207617,0.08669329152368421,0.3799714454427138
72,0.9231054774160828,0.07025438856525108,0.6660092253351546,0.30785675664556794,0.9999999398727456,0.33675998007138797,0.0,0.7385907810124855,0.07974787199949866,0.3432050423478809
73,0.9017055673505051,0.0737258554086687,0.669905455792484,0.2817779693608633,0.9938370436077646,0.3561690113189124,0.009674122374901879,0.7258335789406776,0.016475853488569413,0.2991393232483742
74,0.8705133376754612,0.080997266115456,0.6762129630676994,0.25801186699843637,0.9825650094789716,0.3652865412255272,0.030394019692118236,0.7132592146575324,0.24767395393423886,0.2527105820791409
75,0.8464907243725895,0.08500924176354249,0.6811452419070045,0.22822438288267585,0.9729525251397528,0.3094525354125182,0.0531888560166143,0.7009708083007653,0.06618970741963742,0.2336183805762662
76,0.8239950707033676,0.08822842426299825,0.6857226866810371,0.19836676552980795,0.9659032101282308,0.286182939802987,0.07358144198552162,0.6891439429156584,0.3260338445738012,0.2633013902881516
77,0.8144206172281977,0.0877296923976226,0.6874138495525418,0.1850395921758855,0.9649289795305225,0.20800997491479667,0.08825576458294167,0.6778452262399528,0.015218328340248645,0.24136051909416756
78,0.8316579362358811,0.07710947421720483,0.683650119119752,0.19972621463500229,0.9696122140424536,0.19342966200297865,0.09042449796901059,0.6669170679347449,0.3906827978001934,0.2394792045201815
79,0.8681783480675281,0.058934561689662844,0.6759442849144526,0.2598588642709792,0.9789392923125797,0.2948766832769512,0.07923482070900761,0.6562191462090267,0.1593362942456741,0.2129922448139643
80,0.904397564598464,0.04047606240097161,0.6688426308121668,0.3315968235361484,0.9838645469294734,0.3437012217673898,0.06261936480339435,0.6456544698757867,0.3412446590874486,0.2247541833170288
81,0.9442603162751567,0.02050501488869324,0.661437018181457,0.4055545578597333,0.989990924129373,0.44419235412005853,0.04490599575567449,0.6350815626725401,0.13231097418980306,0.32204704444730725
82,0.9723388348922154,0.0074600627722176,0.6566069906380156,0.4561954480689034,0.9898305247182555,0.4054870976456027,0.028587024589798546,0.624560369710293,0.3330138753099607,0.39575150765011013
83,0.9874607986132988,0.0017857005353625476,0.6544235797295308,0.4672122762413207,0.9901536464577375,0.33962849169080894,0.0183323083720831,0.614367325840304,0.2628463437245262,0.3385877594251861
84,0.9944939386803844,0.0014811773578191126,0.6538012445043451,0.45057925848870056,0.9853666975685382,0.2881292848048217,0.012918089890316446,0.6045673045193064,0.03064729371811787,0.3034793943653838
85,0.9999999940472644,0.0,0.6539923882217354,0.446448458293887,0.9805815525130503,0.26493808214012915,0.009282891536668341,0.5949491827787455,0.06467488664559795,0.2995054900069833
86,0.9942243184365631,0.0003049408531327434,0.6564921749383147,0.46130528770099305,0.9798965147222085,0.2571985659120175,0.008836555357834185,0.5854874895608894,0.35048827251046444,0.2870496262566482
87,0.9868467574180021,0.0019308368433726734,0.6588637870808557,0.48035861514250017,0.9788871033139208,0.17317103170427978,0.011439444945345049,0.5762218900321585,0.09668525053070888,0.20350843207381522
88,0.9785578054392463,0.003691418220123035,0.6613966178852781,0.4898871930618307,0.9774899776549762,0.14693691056580246,0.014639225255984989,0.567096005593931,0.08480791345843784,0.18265629403486158
89,0.970522565936213,0.005258947654433026,0.6638702459250163,0.5047502001191255,0.975374159701134,0.12403496917780364,0.018720657951069423,0.5580863320453348,0.09727725354485804,0.14676385251904353
90,0.9597475387797428,0.008892392127868123,0.6668238224213977,0.5328155973746198,0.9722382540652443,0.10288985279039292,0.023760412626392644,0.5491903568349016,0.0454852039569286,0.11593267146956278
91,0.9491202939420844,0.01281310581223068,0.669585519579555,0.5752925723023927,0.9689435322190016,0.09085408860046784,0.029615110341679015,0.540406642142641,0.038821830440946656,0.09553071830167767
92,0.940623549341942,0.015103166188708833,0.6717807298462103,0.6223366097607729,0.9667790410797891,0.0784975588214825,0.03536539988609839,0.5317143539010121,0.053053607809791285,0.07605403557949014
93,0.9328123047534088,0.017527724305903786,0.673778440631473,0.6652866124149032,0.9636216474194641,0.06530357383114295,0.040652254543713226,0.5231325059745291,0.02098103645286532,0.05638001080552839
94,0.9240029724998704,0.020816580157245874,0.6759183910611115,0.6969546941938817,0.9596082885483623,0.06407969290789294,0.04604829000685347,0.514669942204858,0.006190177341308573,0.05453619090592975
95,0.91469775798793,0.024139274763926764,0.6781782182617859,0.7243057823061538,0.9552941156381061,0.06684313281040154,0.05181821853296374,0.5063267387089885,0.11318202543091115,0.06663251399087318
96,0.9097807997662698,0.025650926964682925,0.6793759266781433,0.7501737204685216,0.9518826231565944,0.03623830395319756,0.056533460255082046,0.49810268816752473,0.006982067869887563,0.0302261285666566
97,0.905393772983043,0.026880411192320073,0.6804483735789634,0.7850099224159099,0.9502153853481503,0.03808232130471922,0.059834087959598985,0.48998600835013345,0.0018235591725095522,0.03224997007560595
98,0.9002289055222713,0.028143621892508953,0.6816792437824972,0.8262699085843753,0.9483150936925222,0.04450644947882047,0.06326436191802279,0.4819780827075206,0.023302648145173598,0.026432940766943844
99,0.8969784895724774,0.029156454061270008,0.6823855280572081,0.8592223131285721,0.9466814941173674,0.04431931210803964,0.06622584846483916,0.4740745106205999,0.008267692624133866,0.035689449513529835
100,0.8937377876247179,0.03002810310625535,0.6830712149485794,0.8803970707641762,0.944914803212607,0.04363701372862563,0.06840783229219499,0.46629471053062727,0.0,0.0174967765621542
