Frame,Center of Mass distance,Symmetry,Grounding,Arm fold,Leg fold,Kinetic Energy,Potential energy,Bone length coherence,Torque,Center velocity
1,0.8208543271206321,0.7057639103513926,0.1833712156575789,0.0561045977549233,0.05522787148955011,0.11764828475899802,0.9255556283901326,0.9031948626067134,0.11245203985622852,0.15302060573192908
2,0.8366229006413369,0.7041976990498423,0.18741419369441856,0.05479356281621231,0.046863709073646564,0.11764828475899802,0.9255556283901326,0.9065739585247519,0.11245203985622852,0.15302060573192908
3,0.8585838474090262,0.7024667419730052,0.19417864348855104,0.052310264324825745,0.03590513026844882,0.13722114682060507,0.9329555810430399,0.9101063105459377,0.036236450997150185,0.17752686093444195
4,0.8835455921317923,0.7005890298073649,0.20218743187346516,0.04945948660337621,0.02406156795703613,0.14440557913386987,0.9420896090883306,0.9136949177012992,0.04461332913747076,0.18852537198075317
5,0.9044646920668394,0.6986364910049518,0.2095944844872699,0.04628447488240659,0.01548199840636647,0.13741855867298983,0.9515354182058068,0.9174940842003818,0.0775315727793809,0.1808154253362213
6,0.9193110965031016,0.69450292163596,0.21487529744237682,0.04524947327350421,0.011287691130638008,0.12889697286174698,0.959781432167543,0.9217837207469964,0.13410954918707177,0.161378242490593
7,0.9283529429583878,0.6881977783931338,0.21776334316661172,0.047577108263396346,0.010250621225446557,0.11072877089874816,0.9660430581529796,0.9263325965021245,0.12306805643939148,0.1257756187001935
8,0.9326596471395769,0.6800338188086691,0.21976210776901328,0.053532845356077226,0.011342632137385986,0.09529577237496796,0.9704944701467212,0.9309362569239129,0.049097705353714466,0.09298495457445792
9,0.9337200699224953,0.6732478653557936,0.2218979107475782,0.060995275143445285,0.01511513284120368,0.08539842337405433,0.9738389103445755,0.9355128826859003,0.02269096314662622,0.08625560809269671
10,0.9356914765757726,0.6667282726892508,0.223544416151475,0.06850505329932932,0.018153995216456154,0.08061427793581256,0.9767808994703189,0.9399532365383951,0.030357618784923154,0.07837840669854927
11,0.9396679073443336,0.662672054254451,0.22567423821134502,0.07283448915719308,0.01879877834445236,0.0700955345006552,0.9796637481233146,0.944206513379588,0.023425110354784253,0.07397038629202268
12,0.9456043924470214,0.6615425638406243,0.22867419937820196,0.07187221135576792,0.01807649606550884,0.06432386134549069,0.9828966936005815,0.9482634263374216,0.11847403373438112,0.06644402160597752
13,0.950922106433467,0.6614124815207543,0.23080777296547952,0.0666543927490605,0.016523656314425754,0.042399353098507335,0.9858425401051237,0.9520970881034673,0.02312227059971461,0.03808489485958174
14,0.9568562619823211,0.6601551770567488,0.23302275777252413,0.060998633180251505,0.0148363410635383,0.04348402629274941,0.9883754062751839,0.9558106166163209,0.03063186151499418,0.031108125755230188
15,0.9619366410949628,0.6595634234005402,0.23439185002472004,0.05810568334571116,0.013682187275518507,0.03930811125240572,0.9904992647225339,0.959313694272863,0.03505288036919612,0.029971074440752647
16,0.9674327643853637,0.6599119854379917,0.23594701188628703,0.05747861143878006,0.011983791652193347,0.03447402752848031,0.9920323658917686,0.9625966386501204,0.05934180359048046,0.02198980046265039
17,0.9699661105655595,0.6639902827291805,0.23759779157141053,0.0563933141744723,0.011600706008473426,0.036406815708895195,0.9930114715955868,0.9655085031194075,0.039955309850764266,0.04555997034855724
18,0.9702558597590946,0.6668587997219015,0.23855464631191722,0.05780994774470375,0.012686765323670328,0.026528928481600187,0.9930701361259148,0.9683260039557791,0.028433166912486027,0.03612312419549467
19,0.9699892616051075,0.6691771502142698,0.23947904419030347,0.05886981069317451,0.013842388091249163,0.02675639724967133,0.9924851168322824,0.9710267497262276,0.022468742870785423,0.04285477617713642
20,0.9708832243916191,0.6698762847666669,0.2397474475261812,0.058184539830577815,0.014240208767672192,0.0221958831416674,0.9919596717811185,0.9736158848643258,0.05076042311360735,0.028606119601762438
21,0.9708953120116273,0.6694823008749875,0.23997060190648317,0.05685292286726055,0.014493929405608768,0.0132358486399011,0.9915771145795799,0.9760889361814954,0.021341118611507212,0.02524119344510717
22,0.9716192062948419,0.6692969328016805,0.2402341467068662,0.05581027932692512,0.014642827355215191,0.013154653454745854,0.9914382972785626,0.9784093744841402,0.02129244288332498,0.015544979338887566
23,0.9708292392655686,0.6686996301925352,0.23945530501687168,0.054894351027593734,0.014366647832619291,0.01293188426462035,0.9910172971457444,0.9805427015541469,0.02157126239239504,0.018117652026155083
24,0.9712245531258134,0.6681860739243455,0.23958817673759455,0.05603015992401786,0.014361553840712898,0.01804002334996259,0.9905168381851335,0.9824265509987309,0.03574780979378305,0.019752250087118707
25,0.9738826120493213,0.6657798269206456,0.23852655598169736,0.05668687236532846,0.012342734868765047,0.02961643978876383,0.9902874059019104,0.9840446626391489,0.03309828677878631,0.02264441419229706
26,0.9804326860648948,0.6621972082374837,0.23839010185980267,0.053288849525768296,0.008204201842098722,0.04270758572711009,0.9901604040259923,0.9853795764757178,0.026429196209385605,0.028259193087951686
27,0.9882611312954248,0.6601620504248484,0.23950089222491885,0.05001168041740898,0.003296584767699012,0.04363473673966652,0.9906587711730251,0.9864178092781131,0.04846749052496092,0.03172192597175278
28,0.9957756576629869,0.6586136345443304,0.24132588730781027,0.04921911658881368,0.0,0.05325939025856135,0.9920048856874272,0.9872017894569188,0.07227194274869349,0.03385927412120941
29,0.9999999895321706,0.6556936684345013,0.2428710860965899,0.05256869521582445,0.0008576097303110447,0.06605460699342178,0.9943502574213878,0.9878105377890286,0.020206159515761213,0.04555237208390663
30,0.9986560718876244,0.6521045930337357,0.24356705593114622,0.05858643060411724,0.0064200709448445515,0.06589196780818858,0.9965601757460893,0.9883198259130338,0.021142718844290944,0.05268079519829486
31,0.9937326394432796,0.6510278201860868,0.24519363518946846,0.062495186568154115,0.01497687690051085,0.07309926610066546,0.9984728666746638,0.9886752545253891,0.0396545128052715,0.07334667939910541
32,0.9869151579848771,0.6533795447935289,0.2474989487814291,0.062045530628645304,0.02340297737504392,0.086675555878108,0.9999999809771011,0.9888037876140797,0.02556105036070552,0.08836425291535589
33,0.9811513534327377,0.6546581500937169,0.24948957994941043,0.0595438379062034,0.029109664745927036,0.10544283574001449,0.9999823990630758,0.988666143513824,0.07955700967721088,0.119087068995581
34,0.9791124893392148,0.6516080261345998,0.25087653808212923,0.058005939578794005,0.03314217051023458,0.1112742249497399,0.9993354591338421,0.9883248595958496,0.04988172557116332,0.12494516853522894
35,0.973549248184082,0.6458641482778126,0.25139966090391463,0.056248219739076254,0.03837283095766062,0.12276959805714899,0.9978346349686198,0.9878672256979403,0.0503577202255901,0.1736519225422734
36,0.9712868927852312,0.6393899704137159,0.25209724512526527,0.05164388366040364,0.04169748779906715,0.13239625199503888,0.9949855623494254,0.9874048465875753,0.023072133299908832,0.19629515420030172
37,0.9680350680921713,0.6324159276346404,0.2523493662171898,0.04405340676980524,0.045960780072868634,0.13656866811211116,0.9914551757773942,0.9871239083146813,0.027744049323114608,0.22196816993417096
38,0.9628418142732004,0.6271476491827808,0.2529246721702103,0.03716846982638416,0.05409650039473185,0.1414675235544582,0.9878953775027977,0.9870983303249035,0.03617462505711761,0.22292432127662515
39,0.9543606195569366,0.6248139938209174,0.2536669825933175,0.03266001370773848,0.06559508210186035,0.13454252791795637,0.9852544368497342,0.9873913966273711,0.04127044202753991,0.20260575478192278
40,0.94623942894621,0.6228078673270043,0.2534258393315939,0.031604795559376925,0.07831989630936943,0.14437137035783784,0.9829371792324584,0.9880557637659598,0.03306347569667607,0.19491932830228834
41,0.9357687312753826,0.6218196422736231,0.2523591909139661,0.03658694450174634,0.09316695238642773,0.13766521522715336,0.9806075660946889,0.9891031801454189,0.1062064546528941,0.15581538640943304
42,0.9244317592539106,0.6225156270932867,0.25005014116970997,0.043433849259477894,0.10740744892826391,0.11375739064275273,0.9782888712708669,0.9905066669965868,0.059028083110912316,0.09780041132431806
43,0.9094540876920307,0.6246939849612188,0.24692722522958063,0.05233116186854242,0.12246014138911232,0.10188696423026941,0.9750523607543534,0.9922041830427392,0.015464490304427769,0.09142196161998901
44,0.890783921758001,0.62670620737287,0.2414540081188242,0.057791171062590005,0.13726118061065698,0.10450584770755196,0.9697101530311427,0.9940614545916302,0.021891706885915983,0.09330534114074357
45,0.8708652415867981,0.6279085146279961,0.2342154667361142,0.06317041604393357,0.1518641365362735,0.1122668510532716,0.9628330900169452,0.9959114946990527,0.026079397869151966,0.1057084035536717
46,0.8499232600375859,0.6280342146704958,0.22528650862870364,0.06669706454784492,0.1665410082503973,0.12080534225705974,0.9554285764176653,0.9976051573171607,0.03557838629781805,0.11984982398462753
47,0.827949467591874,0.6289060025826391,0.21577547951884926,0.070754014758906,0.18024545545706164,0.13283075361673521,0.947517203289896,0.9989627779940247,0.036413973238792974,0.13997181925273772
48,0.8035003784088731,0.6334087705535996,0.20612547476867862,0.0766839784527247,0.1948059714825708,0.15255731133956527,0.9395640247170968,0.9997965548083064,0.12686804812648533,0.15358853066413417
49,0.7759727863331461,0.6425477685220898,0.19756728749501362,0.08399164499810013,0.20914368490637922,0.1906596477801866,0.9319868823495375,0.9999982545349477,0.17607388659734027,0.18332320229962334
50,0.7451396139393034,0.6549400463935429,0.18838121138417274,0.08975118044736598,0.22433783656404285,0.2403508973697655,0.9242803644759507,0.9993969100511719,0.3714692749873763,0.2191806908511108
51,0.7054289329714004,0.6693328389053952,0.1745478230713999,0.09444319496252483,0.2428026443698626,0.3149452395864547,0.9140030254917216,0.9978783799201729,0.3794817772805838,0.2813607374494417
52,0.6545297374615112,0.6880006080622094,0.15870312406456746,0.0963504665531577,0.26576939405340116,0.4006504831733789,0.8998231641051813,0.995287132140992,0.3957554613147323,0.3283251780899226
53,0.5955855090122946,0.706905411813524,0.1381980901356628,0.09781988190483276,0.29200562804744484,0.4831323175397661,0.8818156220735037,0.9915200546313588,0.5159076648861828,0.38624279368809394
54,0.527300210583477,0.719842318882618,0.11027616352106456,0.09972236802258853,0.3214443109268026,0.5726626345648594,0.858174466745457,0.9865208314283761,0.5147189323403998,0.4786361560334259
55,0.45199650136691427,0.7251624375541659,0.0762700128318678,0.10404374295484112,0.35322227170105014,0.6649248024281345,0.8280941559903091,0.9802575636666618,0.7585748889782921,0.5634755009419212
56,0.3719364989446608,0.7237522530181505,0.03368785511382032,0.11544733891206911,0.38506273513307054,0.7913407156474176,0.7902931651902427,0.9726585318579826,0.6032577881767006,0.6502518056228147
57,0.29111264787090235,0.718058905172966,0.015726372142370416,0.15511859588130086,0.417583319859627,0.89715624524257,0.7443551028224104,0.9636741164942082,0.6423090854146984,0.7061652505979067
58,0.21317428110621015,0.7054096377136295,0.0752537332822207,0.20649571991963142,0.4510171252167999,0.9999999981210652,0.6917732554228856,0.9533289773114789,0.024433566329750665,0.8228024845936186
59,0.15029266572308575,0.6862803811240274,0.14526043273111497,0.2660936479191904,0.4886514497964229,0.9867193767878576,0.6347715987239713,0.9418003490432907,0.5001586674710636,0.9246206094889677
60,0.11479565247131697,0.6595001366410225,0.2227403285270413,0.3201668709814506,0.5299796340249061,0.8955190028053653,0.5763606657511627,0.9293563860212997,0.32395487612949436,0.9028093025471936
61,0.11083093138423483,0.6319718765268117,0.3033915872420367,0.37932274821316914,0.569943106562591,0.8457449774119933,0.5192444718798787,0.916218963190211,0.4186079222952498,0.9168022864819345
62,0.12864879611234845,0.6043911405075746,0.3832994900262865,0.43647016640352476,0.6104763060435517,0.7852113584405745,0.46402693525247574,0.9025944180863201,0.4044850161325726,0.8020255076414986
63,0.1484805264349331,0.5737395220768265,0.45970989300880455,0.4915245464315715,0.6607637996215205,0.7365310564110373,0.4089170056240267,0.888644355248313,0.06619455937884718,0.6196404518607835
64,0.18457560889358707,0.5380585523414219,0.5345913948216087,0.5498488917842222,0.710059695610477,0.7296560485594351,0.3531079203247446,0.8745057915444512,0.3752192211079871,0.5884500383777045
65,0.23660907045309915,0.5033170006055547,0.6045966490099444,0.6061922335530908,0.7568073275473957,0.6701169309223136,0.29992361789493877,0.860334655493027,0.39957619110624953,0.5810807562289242
66,0.2997378833134649,0.46965585211257077,0.6683624366145241,0.6510512185589336,0.7993766277324569,0.6059760125628332,0.25284017373931394,0.8462452317562249,0.12030487224814905,0.5634158384276053
67,0.37415598429705843,0.4350108792620857,0.7286697157022315,0.6912147852539915,0.8379392644059319,0.5842702190937612,0.2095518952457922,0.8322868754906645,0.2412130152710494,0.5435179902049706
68,0.45358989790374293,0.4001764823869065,0.7839493330592824,0.7264215110826789,0.873175864717205,0.5451647015138318,0.1685016903547265,0.8184973236644899,0.2495285733100469,0.5087126716268873
69,0.5360551703534749,0.36562029445418975,0.8330526447940134,0.7570285979495728,0.9016823067751062,0.5037956929584637,0.13104203476989043,0.8048901649138865,0.041318141997882106,0.49704477408763137
70,0.6270940619539903,0.3271383831155791,0.8804268713965435,0.7755697632101991,0.9238352792970893,0.4992650459237468,0.09581581691699113,0.791485546646386,0.7504292899776095,0.5184538770892391
71,0.701702454616213,0.29636039953641924,0.9147755488381425,0.7906710821672366,0.9415039964010196,0.37611687527176424,0.06647176396301184,0.7783107096173618,0.3001145666745061,0.4346367631452632
72,0.769420051003052,0.26744552242991004,0.9428072691298618,0.8022871931087113,0.9554560131407355,0.3266756150815308,0.04529427607889669,0.7653671865003335,0.2811260210922488,0.39489690903723274
73,0.826627439469057,0.23973893442472088,0.9647430648865026,0.811625878471531,0.9666714834992259,0.2824714275652824,0.028764146791013436,0.7526431717776682,0.14346072296082887,0.35999588722237413
74,0.874973468155495,0.21012271348916248,0.9818018135128339,0.8206891692794255,0.9762246642284141,0.2665048414270362,0.016135750217283733,0.7401400855318149,0.050431930702579474,0.36712113187254874
75,0.9145742787306547,0.17902598130153138,0.9945619882350158,0.8300522627434798,0.9831162799812804,0.2686398720252093,0.006229285305045001,0.7278569598469091,0.021157705462344103,0.4107339489793221
76,0.938912783574626,0.14707877358848573,0.9999999809634331,0.8384177178848866,0.9856804433805866,0.2780966955170048,0.0,0.7158127282668438,0.07235565246791716,0.47037592761192637
77,0.9407080224134173,0.11618025741964398,0.9959499918753727,0.8453012352916515,0.9844136125656033,0.3051193604847411,0.000129339194600872,0.7040191487568845,0.04505602882052528,0.5037088636184591
78,0.9437519932613164,0.08334171584908846,0.9923663606943899,0.8518384952892872,0.984241044158487,0.3261272271927781,0.004066891500907942,0.6924872602816738,0.01252409645598828,0.5734721449395621
79,0.942887538710204,0.05389444642214386,0.9882984134751327,0.8600143454063234,0.9883157250283409,0.32917929860374606,0.00863138479160853,0.6811879158200866,0.02459800641115129,0.5652730000257302
80,0.9365001997810548,0.026770000576788824,0.9825917252837032,0.8689494688057706,0.9952742379042977,0.34487811740052865,0.014541821381492449,0.6701146988350578,0.009100389223419056,0.5916849352957729
81,0.9181906334850617,0.008616929537731568,0.9714074995749536,0.8721733611666629,0.9995624897762112,0.3404612099647553,0.023506019487956158,0.6592889491440697,0.11602274192184503,0.5196513799356132
82,0.881179506526635,0.0005624255066297824,0.951917269184913,0.873261803180656,0.9999999479552132,0.3546556127577589,0.03802840062974379,0.6487206410004641,0.032151512447500766,0.4205558920103417
83,0.8437114412771899,0.0,0.9302947567170301,0.8755928392833138,0.9981802614080243,0.3532399965150579,0.056613366485307334,0.6384021549478283,0.01644176674456487,0.3150686414479177
84,0.8071151540982844,0.002966818074381282,0.907273047527017,0.8818549583144761,0.991825636970521,0.346512582554044,0.07631231045322655,0.6283266171233696,0.005926984364542376,0.2704896175452948
85,0.7577690804966405,0.014079480852454586,0.8790702329853319,0.8949329613003348,0.9818476665992089,0.3485311215086368,0.09804709527604002,0.6184611217406674,0.01579529389805235,0.22480551037900898
86,0.7035697515628659,0.02996986102364156,0.8468971954383347,0.9164989808791995,0.967938060160132,0.35956649116761974,0.12270511767178413,0.6087660503442828,0.172925570473766,0.2276010657959495
87,0.6618265939304715,0.04537697485815189,0.8179183067268742,0.9376163643625937,0.9526967469889395,0.32397676837043815,0.14729463545404514,0.5992522906290547,0.46572377770308654,0.20869503043581858
88,0.6344351930820615,0.05610598247150918,0.7971970833435513,0.955142332057606,0.9414065116307577,0.23555889607634573,0.16727483524708325,0.5899473156586318,0.23766137552365776,0.1306210181606879
89,0.6123739255093059,0.06309298874929019,0.7804711136484075,0.9699246571368706,0.9329820669385048,0.19258947691358672,0.18181344863421411,0.5808559174889113,0.20589928406422398,0.14163964868063358
90,0.5949923320285763,0.07120077529078866,0.7676207792675452,0.9820353506564935,0.9276778286717219,0.14988555843857138,0.19285206846066555,0.571975133056975,0.3646288134168587,0.11306602280797183
91,0.5889140075383087,0.07657621303897906,0.7617385687938005,0.9900380556225844,0.9242020547251981,0.08303049419114912,0.19970251987032905,0.5633165357805875,0.03352382658647886,0.05339755565308567
92,0.5799509926397158,0.08227451124902267,0.7558326806470732,0.9960134928833972,0.9235120824586602,0.07740400181379103,0.20366234989898338,0.554876227907126,0.17413745350181714,0.07374634348715245
93,0.5760400166017159,0.08672374528876128,0.7528114095745322,0.9993119950379092,0.9227509579274108,0.04767001372580299,0.20649751210588366,0.5466409565998915,0.05465524812753452,0.042003678061881725
94,0.5734146232194518,0.09102866521975224,0.7507793732290565,0.9999999030917578,0.9226417146941396,0.04119083495647427,0.207909484795996,0.5386130564954981,0.07787480716389218,0.0582898621045166
95,0.5746617898508324,0.0932793474409894,0.7514183013968828,0.9985041112184287,0.9232881367274733,0.03162813661891479,0.2080928478984823,0.5307923987317394,0.009935629295530145,0.040322738410535776
96,0.5761534394711315,0.09511915950745503,0.7521534777678708,0.9958554607855508,0.9236707900690349,0.02979386281951698,0.20741529746171958,0.5231705410387133,0.02186017615639173,0.043898172040540855
97,0.5772346216326901,0.09752716823870128,0.7522925917841979,0.9948816381356855,0.9229164673987402,0.0238144673967525,0.20702498991327145,0.5157307721518921,0.005894214757209374,0.05022107854872396
98,0.5795676081293321,0.09900161563984307,0.7534882835195793,0.9921643193553394,0.922763193305405,0.02687448904874092,0.20654902350098744,0.508468750145703,0.03188885910936876,0.04751084978654127
99,0.5808070973572377,0.10015211562108885,0.7544951073751461,0.9905328098890885,0.9233737586219167,0.019596181734170905,0.2058820261848737,0.50137104949255,0.04013594184880119,0.041446556341018174
100,0.585261548567481,0.0999130178451046,0.7574731436318258,0.9886479763175254,0.924323479426336,0.03501707878679958,0.20468078226224315,0.49441781075771674,0.009569302055162873,0.05857592127472364
