Frame,Center of Mass distance,Symmetry,Grounding,Arm fold,Leg fold,Kinetic Energy,Potential energy,Bone length coherence,Torque,Center velocity
1,0.27661096685915887,0.867195970143027,0.9999999895473061,0.4159288927938024,0.6983406542346086,0.08334619781659817,0.3225693165342019,0.72940722500913,0.30723417117878116,0.10067401725834854
2,0.26976440813236013,0.8797681015184866,0.9967457953576393,0.420955215916755,0.6915855111580325,0.08334619781659817,0.3225693165342019,0.7326548063436985,0.30723417117878116,0.10067401725834854
3,0.2578821916957074,0.8966025409647658,0.9913860048205309,0.424724137259803,0.6821003331265311,0.13994741152868073,0.3291465194227327,0.7423553379805161,0.4988734144409821,0.14390596473526587
4,0.24087980910347284,0.9193138900718425,0.9836210104234221,0.4255225975058678,0.6694387121849522,0.22825708022668934,0.33815571853489085,0.758345705761575,0.2931367206343146,0.2471463929330048
5,0.2229847581065044,0.9450287123403349,0.9744187906495659,0.42259038998384774,0.6469572783455007,0.2890262460095272,0.34875054139125067,0.7799497702562991,0.38714436826867565,0.30402873571476485
6,0.20527204187023673,0.970485075111184,0.964145165606343,0.4132995997472982,0.6129312134660856,0.36811073205255035,0.3608996342406303,0.8076035822549096,0.11876508250548269,0.34290646144172393
7,0.18689204180995794,0.9897487263355481,0.0014701909052093425,0.40128766556532874,0.5790869800856063,0.39450206121841525,0.37531076449663087,0.8371035864926035,0.6272722054715321,0.34794862876732285
8,0.170865232221989,0.9985706395358441,0.01039458396209798,0.39562564501493996,0.5575003166408883,0.2970828852517613,0.3901477243620795,0.8647451368231105,0.2382459695799689,0.27752611774577296
9,0.15747072891519726,0.9999999848124279,0.017922165127830462,0.3940899741284318,0.5398757187886314,0.2590998649512163,0.4037613823214043,0.8900794788513984,0.3906678402477716,0.23839662394350183
10,0.1493502777662804,0.9908127940216103,0.02337179184886856,0.3913838497829404,0.5195731014815802,0.20202527043566207,0.41625592205214007,0.9133881495477617,0.38605563220314154,0.14524383326471557
11,0.14618859611756452,0.9740236686340623,0.026869567509320954,0.39140187354401623,0.4977605297487696,0.15787991519517264,0.42569212827435154,0.9324621028959598,0.14273723969953186,0.09324168931558366
12,0.14338915426203458,0.9583837317836322,0.029816859795426462,0.39697615732771313,0.4807406842009668,0.1429909653830425,0.431830122835897,0.9468360451142542,0.12317166989026586,0.07058121021792008
13,0.1409311733451672,0.9445721437568858,0.031732366872769986,0.3973099320944321,0.47441325603550477,0.15343892967122502,0.43624422705573396,0.9579631908139145,0.026168461634586918,0.09155471689214983
14,0.13853932326098595,0.9327186546817543,0.03316250261334964,0.38912729555749187,0.4737514874535191,0.14766630142197734,0.4401545709546779,0.9673809230392997,0.18320414290084958,0.10006562305357448
15,0.13530291052640803,0.9213003819620664,0.03479890325600593,0.3821704940785013,0.4744467186033565,0.12322070320416025,0.444947170587887,0.9749061755880187,0.4170596249258625,0.11156901752271156
16,0.13478106915323787,0.9084183482648895,0.034722273758944606,0.38022136684424424,0.47706773284628173,0.07380313269159444,0.4482471415781536,0.9802477570425112,0.22609276259985123,0.09111420266432974
17,0.1355218550349093,0.9002936771797133,0.0338856710968058,0.37987203899781047,0.4816559296818799,0.04343930417007941,0.44844496009449225,0.9835873629797546,0.044419928182674234,0.03673633979953192
18,0.1373873217435054,0.8944318208746631,0.032526918010636334,0.3831802231654037,0.4861996686961731,0.03986967846791542,0.4466712075001323,0.9852469534879351,0.04641190726777696,0.023960513846737308
19,0.13972053892465758,0.8885454422878749,0.031412616603301996,0.38288678292363626,0.4851145171615908,0.03067608957760076,0.4442435286607221,0.9857987746603193,0.12087850538597142,0.03325212255972443
20,0.14010059976047184,0.8876558629897572,0.03059753879321023,0.38398469429079,0.4912601094133652,0.010295544831347158,0.441874373036217,0.9859385580800083,0.019333121039923178,0.015945001811339767
21,0.14013595360513856,0.8860577846243742,0.030427643468730184,0.38598903307544363,0.4922856946591892,0.0155363349126823,0.4395565513417068,0.9863564882916835,0.03795013594454766,0.014740456922348965
22,0.13917879244769965,0.8827251627515723,0.03122454928720092,0.38672819451336693,0.4890784673610983,0.03459231381966516,0.4383104766130047,0.9869495606251166,0.0369813648901419,0.032586501956109654
23,0.1365465463620392,0.8844893627441203,0.03321522698340524,0.3854622054436434,0.4835051689485819,0.05014535283996196,0.43885284597400914,0.9875928916752165,0.02132082533262248,0.06473445335614963
24,0.13321890348787474,0.8873739788250454,0.035642339610768334,0.38177155917428196,0.4770029216480653,0.05255802348840749,0.4411666959684033,0.9883131957548527,0.030398012819910853,0.06638031823779081
25,0.12962440984156293,0.8951871696855016,0.03825273340996061,0.3738603685032973,0.47091537756242136,0.049495480736884596,0.44519161540421553,0.9890865633935463,0.09081958373191217,0.061482871270300644
26,0.12798547709607666,0.9040109402948105,0.03987582498833099,0.3645834429420875,0.46443174285460886,0.037693855396362295,0.44960177345497604,0.9900175841139198,0.11870817773247791,0.05216810153175793
27,0.12677793040754157,0.9178061617637814,0.04142469293895325,0.3570015406388507,0.45783408759187283,0.06411957405190964,0.4537697473218491,0.991082090897894,0.22440357440722117,0.08056027652127334
28,0.126978892012139,0.9350446466260782,0.04217407004131081,0.35282780583672085,0.45097031713410873,0.10081618548233912,0.45731330686508725,0.9920700875983567,0.10476590163093255,0.0928748949993959
29,0.12625139509481437,0.9568395387772144,0.04307770431761241,0.35036992204408907,0.44764754880893626,0.1297064603480478,0.4601520635177229,0.9930245174328477,0.12066346894130525,0.10073004994850683
30,0.1251211162867973,0.9779898409893043,0.04271101400218233,0.34895931514540324,0.45701832925742447,0.16737352848083303,0.4619527794658425,0.993948322656528,0.06372667508417544,0.09448713884683048
31,0.1247233680492999,0.9944705130122359,0.040082960098456966,0.34766187020262124,0.4830953927790946,0.20624671374950196,0.45974177854879744,0.9951677302207289,0.4497029456329238,0.06889093060151719
32,0.12849757463375996,0.9989752647684558,0.033880577820281005,0.35089800053766074,0.5237131949216488,0.2933407022785755,0.45052126796187625,0.9967852857679509,0.7497261821849937,0.12572950651992088
33,0.14122354742923793,0.9882683875674124,0.023200104919580904,0.3605455199090364,0.5687926658293397,0.40692820721196393,0.43164237595164895,0.9985051059474247,0.06653534540317,0.2471349100514948
34,0.15958755159291868,0.9721446671641897,0.011204542901310656,0.37618326673997865,0.6092334122509531,0.4154367646566747,0.4060328419513806,0.9997655008152773,0.1979497026416578,0.29578947728779825
35,0.17916388065514746,0.9602476650147573,0.0,0.3910554897865805,0.6433495346962577,0.3770945607743779,0.3803531492692613,0.9999888280081425,0.02825427699018652,0.29368150485866173
36,0.1996387436557953,0.9476632999514991,0.9653730291641319,0.4097559094542872,0.6720919673652697,0.3713080282952499,0.35704015010975576,0.9983824556746885,0.4647955379343677,0.297150272015603
37,0.2246040287762328,0.9301064870742891,0.9772330178871671,0.43482092550804097,0.7016114989866328,0.44950536776215166,0.33417421014204324,0.9941338340688067,0.33112005162066943,0.37095606803810827
38,0.2543089494100503,0.9054229952648728,0.9901990410410666,0.46419629845514,0.7299696519894817,0.5090245636261493,0.31008608854668807,0.9867051828434316,0.380522354728991,0.43519656166102055
39,0.28934506214160477,0.8726793028574568,0.9956929204008553,0.4987337762901806,0.7594537017670098,0.5807387524402075,0.28498856173891635,0.9756757366810632,0.705827873693307,0.5096740944561563
40,0.33287593486088884,0.8273510104631842,0.9794597011252558,0.5385646938781838,0.7910210626140602,0.6991694487734026,0.25844941465995497,0.960667873875331,0.7863248068139402,0.6271481935806177
41,0.38745005899015966,0.7654809375419327,0.960562928576384,0.5822633335489124,0.8237187339692001,0.8262341984056949,0.22925748043781075,0.94148525277839,0.8700536137398788,0.7620538077728746
42,0.4535259938558229,0.6868805054321725,0.9394934256884899,0.6289602192543398,0.8558738171830483,0.9673797968061664,0.19774145900477608,0.9180324547348682,0.14537378164059722,0.9369215517026319
43,0.5289489595994797,0.5984118290802298,0.9168752084160998,0.6735105294895706,0.8948535473796447,0.999999998259577,0.16397147792176306,0.8907333715181254,0.38446043643134964,0.9875761169144186
44,0.6120835723945404,0.4990432043820021,0.8933424024837266,0.7000609800782183,0.9329933232962834,0.9487330033366806,0.12874616652142415,0.8612479717011698,0.7076220782630931,0.999999993036678
45,0.690398131454756,0.39907329323163726,0.8723992845178394,0.7028210999592698,0.9569066276302101,0.8535304538404206,0.09761490472986949,0.8311145192917507,0.40685354626868386,0.991664967162868
46,0.7632180632519165,0.30046602374514364,0.8544659858458468,0.6940477524333802,0.9726513348695064,0.7905746894809276,0.07275746355936305,0.8008072857864982,0.7416571073079298,0.9233300043195302
47,0.8182911999584807,0.22128935132703165,0.8426411637657516,0.6933455368908986,0.9777901411849284,0.6626213945282886,0.054158036574235686,0.7701082189835406,0.6298593416450036,0.747664197647226
48,0.8542778628032448,0.16795874637202873,0.8363879255053911,0.7009451721643485,0.9736793759120312,0.5458215400425526,0.04341495989574842,0.7388462754998639,0.416674644813312,0.5617730108271777
49,0.8778491361854815,0.1326807842457006,0.8333472138257406,0.7045633517244676,0.9616421704001793,0.4698401032798354,0.0404859592783509,0.7074779761940887,0.47385628105600347,0.4874258119368542
50,0.8955463120793701,0.10355300041224964,0.8310995944057559,0.6949109887469734,0.949720578982341,0.3876682613822521,0.043416265892570395,0.6769088984149085,0.2654893781829451,0.4184761802847739
51,0.9052178692643251,0.0834960513439726,0.8303174821241258,0.6821859707931697,0.9395376373580612,0.34403836910356655,0.04904195021035204,0.6476752537785034,0.22506893986556642,0.37346499889679274
52,0.9081659298240973,0.07472388018294673,0.8309241451063719,0.6751183239866505,0.9314569101891872,0.3042813516240102,0.054230293136905965,0.6199778555666136,0.136591952486394,0.33688263196055157
53,0.90167889412364,0.07856317277744236,0.8338748670359664,0.6713045925795732,0.9259871219682314,0.34505208586020414,0.057908349400958084,0.5941548177693409,0.13077400106117004,0.39918259072620066
54,0.8899994045824369,0.08365877993633014,0.8386213656530405,0.6722947667649243,0.9146702939912841,0.3832548977585634,0.061907802035300476,0.5705149949273812,0.033723568124988904,0.37682195577829886
55,0.8788347347241591,0.08513937220152955,0.84341825955392,0.6797601090871186,0.905822991172948,0.4048499991928859,0.06687860455247577,0.5493580051484916,0.3817464316629336,0.3072632287911032
56,0.8644611797562322,0.09542082372428391,0.8487399912860418,0.6863233210467214,0.8953627359483238,0.3492659350671165,0.07263270555558364,0.5308991648185768,0.40663021118156556,0.2791825499841238
57,0.8486210370465436,0.11569934786659426,0.8540763629888781,0.6873729430847509,0.8828698121304408,0.27667058640312797,0.078864424201372,0.5152033238768292,0.21368817436167933,0.23118004296221772
58,0.8352787090970711,0.1405901197817572,0.8583089269696824,0.6851659638806457,0.8747041413741359,0.22784915298968142,0.08434904415318735,0.5020436589738067,0.2063965203031108,0.16153119080987788
59,0.8226719705495897,0.1670734441368049,0.8623021069538219,0.6815436849595543,0.8670738014690582,0.1858535930785151,0.08794740484296991,0.4908722969843879,0.05374020758495236,0.16598111180925193
60,0.8092308559499148,0.1946754070135108,0.8665688393977448,0.6803072163644865,0.859106445797021,0.17270098300412173,0.0910037903295109,0.4813247176255617,0.1448158168248427,0.17027945873637396
61,0.7983340411710986,0.21945686714535612,0.8701012186253404,0.6798500141890417,0.8511405020072982,0.13913721685237895,0.09364231864714478,0.47319929130896465,0.07881485529784057,0.1481453306881362
62,0.7886734634237605,0.2419798292146798,0.8732429768161458,0.6786754915927743,0.8452077642911711,0.11822784309288967,0.09472280714593294,0.466302718456,0.08633760072742257,0.1449678316635729
63,0.7802815517219147,0.2588770655016821,0.8760131561698317,0.6750801914211734,0.8406526484664066,0.09692620140932601,0.09554196268064162,0.4603811283026071,0.08264559587680954,0.1231600230404125
64,0.774969173576404,0.26869116151115224,0.8779656214949229,0.6710551145561338,0.8364824716218036,0.07794176820707716,0.09708070292379167,0.4551773090257517,0.08615611318702691,0.09221303505171433
65,0.7720466601477946,0.2765857532750632,0.8791843734625469,0.664442238233289,0.8332333455923161,0.062043596508154095,0.09889698138523031,0.45053708645817503,0.0014276930817431267,0.059330643999117263
66,0.7709995949025885,0.27975790316080257,0.8798835856302883,0.6599528235505585,0.8317555809332409,0.06376784707630744,0.10008492298645986,0.44632468632717026,0.06353188317427122,0.06392322727295505
67,0.7701478031009544,0.28272293815063343,0.8803494540690027,0.6559260608327712,0.8318043058381209,0.049671045525840965,0.10022679439664009,0.4424514490871394,0.03791330668221975,0.06738683933802683
68,0.7695425028237941,0.28396184861021284,0.880694184428361,0.6519102731913997,0.8315272608675722,0.041897061193169646,0.1001488239016142,0.4387405044878859,0.04426830674288262,0.06615935937253116
69,0.7688938277648807,0.2838658189532344,0.880948515527993,0.6494594612474162,0.8309826333167675,0.036398376075600404,0.10040666343833429,0.4350102828497596,0.03159082772343498,0.06518832536013443
70,0.7697750865169056,0.27998651589003065,0.880710283277276,0.6489096248772291,0.8315567001363516,0.03317524039266303,0.10075069274437422,0.43119833378367806,0.009433627284030629,0.06778562470053448
71,0.7715679620744011,0.2738628712427033,0.8801446224507722,0.6493377621889062,0.8322662095131552,0.0336512443598545,0.10072080774206048,0.4273476330116622,0.016218198063384277,0.06768496270887153
72,0.773759449485092,0.2670684849122513,0.8794483280394317,0.6477481291473254,0.8336991776795902,0.030916961286617826,0.10020867103932136,0.42351795949996046,0.0008586898145498973,0.05784448770167596
73,0.7762471646172545,0.2584242574883446,0.8786955980766483,0.646494101640453,0.8354401945938607,0.03476937618366029,0.09933480649675962,0.41976557927650276,0.03215547608545319,0.06171749509416162
74,0.778841140138853,0.24960555239702353,0.8779973840887282,0.6474737014850956,0.8371141556470062,0.028773021618755067,0.0981526913815046,0.4161279335479237,0.040878199974914306,0.03868005751178049
75,0.7796511306240815,0.24321924786232152,0.8778957745017765,0.6512106228169886,0.8372826191745756,0.02086752917706189,0.09771311146250891,0.4126354255799272,0.03417094361476649,0.021481470776535585
76,0.7797979644992272,0.23982225836179624,0.8780164774771075,0.6530180212300297,0.8366397039576521,0.01311500299220709,0.09822122888630312,0.40934828754334,0.0002929786905744611,0.008206498677791729
77,0.7783492898662383,0.23805966264343784,0.8786366286841202,0.6544479557574862,0.8355041931146249,0.01914744705626678,0.09966677315004337,0.40630304870682343,0.0023001816791137,0.009444002522689123
78,0.7756632841714117,0.2389841910075388,0.8796398249990218,0.6539188897896342,0.8329983529677677,0.022819898439007492,0.10199625308985567,0.40355595721843035,0.00465524183744943,0.008914599426684025
79,0.7734877352385774,0.24103073048141785,0.8804978757301444,0.6513537149355232,0.8305756492331707,0.028664511360019358,0.10429561658916259,0.40117035228899534,0.0,0.026932426107393256
80,0.7706763947698599,0.2455287446288393,0.8815116425134116,0.6497387553850921,0.8283798394144808,0.03350396897212342,0.10647937472239707,0.3991678746510626,0.017174326214926258,0.0348329815647655
81,0.7683631103517418,0.25124410987647766,0.8823627059857841,0.6495594604230163,0.8256464981966553,0.03548662052598269,0.10796707617408524,0.3975871675333844,0.0004508488456696489,0.054489088721161184
82,0.763972186780858,0.2586789071575489,0.8839090656896755,0.6508584608626241,0.8214612711792498,0.03846151850917922,0.10991140449084583,0.3963430803384447,0.0034434295192188728,0.04037390441048034
83,0.7576375227363423,0.26496781264992536,0.8859803400078725,0.6511114630934969,0.8180636230639133,0.048633905137796946,0.11391001513870817,0.3953115893045819,0.026410129726676102,0.0557421522826236
84,0.7534586790706584,0.26791604910963546,0.8874409586245378,0.6496651025629883,0.8154317388254558,0.0366687235145353,0.11864314578148928,0.39448277075317273,0.014938465751673171,0.02739126682730815
85,0.7483221415108041,0.2713089306825281,0.8891675537720851,0.6459894609650708,0.8127024395501551,0.03979387248879096,0.12332103925771881,0.39382534052724893,0.06691027849551116,0.03773166756748311
86,0.7452468540825608,0.2731286911333732,0.8902627106023312,0.6396197209309968,0.8108545969274256,0.02430181444792893,0.12729311797281068,0.39337486836086727,0.020751080636457656,0.011655500184472112
87,0.7428197248923727,0.2744555503493006,0.8911469443580007,0.6367508448138222,0.8100202386337703,0.02186883711478417,0.13032439432950507,0.39311126376224476,0.05774122895712411,0.017517344626194056
88,0.7410340380970759,0.2760388709359956,0.8917520460846285,0.6338992933438305,0.8092803737978161,0.010678095573245788,0.13255928690957947,0.3930037839210431,0.0470605847198679,0.01841387136640345
89,0.7398332538947545,0.2775467746930439,0.8921503454277376,0.6337941040140918,0.8083188968910486,0.0024743393682608856,0.13368883126639192,0.3930214345225718,0.027169356040789263,0.011024719053717233
90,0.7391548000864733,0.27862033665513153,0.8923650820611192,0.6332073848453452,0.8075245972663789,0.0,0.13392507546423318,0.39314386447683064,0.004404032166920449,0.013699106819282535
91,0.7378362795414452,0.2802119685554144,0.8927609243462062,0.6333034886556173,0.8062898488751371,0.0016601862699345,0.13386898457069382,0.3933113556034222,0.015657392939686793,0.015265559624089839
92,0.7368993887997506,0.2806779857698192,0.8930226010255499,0.632562897151757,0.8051379492185567,0.0007601528901444832,0.13381242803560156,0.3934662493602842,0.020184049372303354,0.008105603991606468
93,0.7365782134754237,0.2794010356984001,0.8931402838670622,0.6320414985414186,0.8043264840622113,0.0013257464521725642,0.13370714614012003,0.39353040236468845,0.0019443659575809579,0.013159668349457154
94,0.7371310286206589,0.27832557168365646,0.8929252401014279,0.6318486654886893,0.8038598830723745,0.003904081811453636,0.1333367931515048,0.39348745910199995,0.02059689629793609,0.004288132281494953
95,0.7390475465162504,0.27405651044502116,0.8923248733303633,0.6334531930588522,0.8044954999038647,0.017850903414362015,0.13210712053904175,0.39326844035927594,0.0025392204535372178,0.01307781199681887
96,0.7418333102067859,0.2678459026869368,0.8913721234879759,0.6355922686328899,0.8058526400478981,0.02401538819488765,0.13061688900855492,0.3928505231371881,0.00026183159787391777,0.037746567510354226
97,0.7452345592338306,0.25972168730521167,0.8902610981580042,0.6349085104930476,0.8076080379360945,0.03204671901933374,0.12951065921159097,0.39221864304647225,0.07634655760625492,0.05656489520395851
98,0.7512297927250914,0.24806987925933938,0.8882310819390935,0.6299520618425671,0.8111142627779725,0.058274647585279726,0.12721762752208207,0.39134992103285465,0.005905499351297514,0.07708363466924405
99,0.758403039198046,0.23399961183083046,0.8859381349174738,0.6196017144640928,0.8151357763346009,0.07347770744137082,0.12429255772547375,0.3901928555981718,0.1511070191111709,0.11553400557106168
100,0.7694406848877373,0.21288968960523963,0.8823510349601795,0.6014139088627245,0.821307664871341,0.11684025663687778,0.12089686950642509,0.3886121222569097,0.09074064358298789,0.1583229756522509
