Frame,Center of Mass distance,Symmetry,Grounding,Arm fold,Leg fold,Kinetic Energy,Potential energy,Bone length coherence,Torque,Center velocity
1,0.0,0.9999999819764812,0.0,0.37742806580327465,0.0,0.04811317427653038,0.9999998468945989,0.9994490127212144,0.04141930835371742,0.06571695854290263
2,0.0033339242880942666,0.99124462604213,0.007168206243226564,0.40551775829428555,0.012149582335833273,0.04811317427653038,0.9999998468945989,0.9993356719171593,0.04141930835371742,0.06571695854290263
3,0.006294259286918566,0.9825661528172255,0.01334956695610393,0.4257238946373142,0.024676137533262362,0.0457509671769576,0.9908586940308717,0.9994325358269015,0.11027447530659912,0.05996702584316947
4,0.011622077918210124,0.9691063666374733,0.02451431034003261,0.4482139269865671,0.03920115215114618,0.08019615130421845,0.977347625400593,0.9999692662781727,0.2418613210860449,0.09819302481816358
5,0.013833218931902857,0.9614831060833933,0.02902159153842568,0.4688815084533062,0.05262846375340301,0.041206267273099506,0.9655038211570062,0.9999377015208495,0.13936810390627816,0.05641399247204719
6,0.018540213951845613,0.9495398064921018,0.03793948239725264,0.486006695082656,0.06474477071417739,0.07986533081836114,0.9566471471352267,0.9989423883098916,0.2504183518106618,0.09748493008173634
7,0.020311986480016416,0.9456826340474319,0.04056646707161666,0.4990817450658673,0.0683396476525336,0.04080987277473935,0.9502514114872035,0.9973480347793549,0.0989347469063196,0.07588326221334214
8,0.02401177958309388,0.9405788268214957,0.04726606213083974,0.5075245841374728,0.0769340530685169,0.06599406922764886,0.9468811930071617,0.994281584559451,0.016509291379611806,0.09232197159814987
9,0.027986937963086933,0.9360498629624905,0.05384347185637193,0.5136443769275644,0.07998660671364538,0.07974117500404548,0.942177128536007,0.9893583374256427,0.07793227496452061,0.1262810611659586
10,0.03379778431053916,0.9271047791089027,0.06427369880903011,0.5162584198474491,0.08825014199575798,0.10826595415905278,0.9364924006724661,0.9826413708291245,0.07883699667255725,0.16100966566876965
11,0.03879919015799894,0.919639999428812,0.0730722131924099,0.5167298580311126,0.09665044317741067,0.09949299362706346,0.930033094764212,0.974408931962567,0.11463456698188657,0.15601183963916374
12,0.04263350615421043,0.9121703036403132,0.07988275815234108,0.5161494872287445,0.11033814102805534,0.08457910488630656,0.9264613048780757,0.9651011181075747,0.10268078328328395,0.12990613794940992
13,0.048998886028941785,0.8986136070486836,0.09128859520236697,0.5164764555702585,0.1279651396354904,0.12182930358401708,0.9204508674198593,0.9542105445331653,0.09601292178813892,0.16502839402129563
14,0.05299918954365121,0.8872230293309831,0.09880697244023418,0.5110401676890727,0.14842337497617578,0.10401382249717465,0.9133610217755371,0.9422040713725124,0.1423757159472867,0.14408975688865444
15,0.059450104172250086,0.8680036037147385,0.11040779106682069,0.509630138959005,0.16912997069210475,0.15251271882438017,0.9041088033761492,0.929816361195447,0.02699915223085148,0.2182000437559559
16,0.06319235682078092,0.8510652693749094,0.11550329399618287,0.5002659767823281,0.18472745885285977,0.1506800132776334,0.8943898655671126,0.9172456785756451,0.009205951268152018,0.19682553220783933
17,0.06290379904937186,0.8352522703660399,0.11297087421609357,0.49198846665454976,0.19632228370361862,0.16153116095646147,0.8918017089281915,0.9048201941698581,0.05092227405303886,0.20707256872813667
18,0.06452339135203196,0.8148704606501213,0.11373464958742514,0.48951427099787237,0.21685123620403896,0.18945881459360012,0.8900523225070476,0.8929844628151372,0.12369097411194288,0.24647437883141365
19,0.0617742721233605,0.7924866007064517,0.10616875583090016,0.4909135092736365,0.25237010645155084,0.23357658501595233,0.8919442065670607,0.8817436309893332,0.009658930813006754,0.3088226212908885
20,0.058226928540047684,0.7731717219445011,0.09540052960266583,0.4909665268881792,0.29104368290006927,0.25324892550702954,0.9018496065934365,0.8696344018949205,0.22252081759588346,0.3385896245472142
21,0.05714539455077343,0.7565147851299087,0.08994338617415916,0.5126858077939641,0.33342255742030474,0.23906364737259864,0.9089218511380743,0.8548003612467551,0.25308044103701144,0.35301089441238864
22,0.0636766343976041,0.7372859181415259,0.0998097348339772,0.5504728548777604,0.36188209209245803,0.21598156604015786,0.9010591070714835,0.8360603504406543,0.1821245164698852,0.3167812683632935
23,0.07265508711747326,0.7230933806010291,0.11498857072264411,0.5750841298209187,0.3598799503939757,0.16290407470351914,0.8823898850626902,0.8145484613889421,0.19930105727862443,0.22890693715638252
24,0.08716347301374432,0.7071044359333096,0.1390906811151096,0.5936925463049464,0.3273739847785581,0.18186264486981912,0.8618934146427757,0.7903333552351219,0.07811503843828585,0.15384808316021525
25,0.10193071002604108,0.6991899799366392,0.16561075031414937,0.6191694675856,0.3007315249357144,0.1972031005382798,0.8431270878376912,0.7635642734790556,0.14673528535501307,0.19800926200445165
26,0.11832983889361356,0.6935899910857797,0.19530974483284855,0.6519081137262188,0.28626819795751807,0.24663964038893932,0.8253940863510736,0.734370337289366,0.5761453330508223,0.3236413833073824
27,0.14100746020202753,0.6819328089534029,0.23692485231622243,0.7005265279786764,0.28695976766130277,0.3546008954784911,0.7980519104384316,0.7025166578589739,0.8843402490715236,0.4389409242818245
28,0.17233559252863515,0.6711304524603584,0.29293442202313075,0.7673560093558012,0.2970061101487778,0.5146538493204089,0.7526408998742375,0.6678637590041019,0.9999999994449892,0.6320025730018743
29,0.2176563791005256,0.6556550599102381,0.36965463986224706,0.8419770989675984,0.3126141531523872,0.6999653208415947,0.681435204315604,0.6314980245715038,0.815003342377883,0.7945481339524957
30,0.27836156160760794,0.6352684707006966,0.4623572611198425,0.9191721896900177,0.31720881050251054,0.8648369035335283,0.5806363504257348,0.5953292946582034,0.2974709247828366,0.9128224191674604
31,0.34928765919119414,0.6148009373324365,0.5584389388471112,0.9640670203628181,0.28553768644679545,0.9665506194436301,0.4621314351642657,0.5615426158764734,0.004176717381996325,0.918574143286247
32,0.4239122224720297,0.5970958767948107,0.6478874978269719,0.9866722834146446,0.2651802523028941,0.9999999974194383,0.3459167599715323,0.5312066597029622,0.43787177710698477,0.9582925275637082
33,0.4932394506260113,0.5897853610399063,0.7215301433147963,0.9999996387150945,0.27571083549823044,0.9457470666481604,0.2480513069901167,0.5054018741473105,0.7634056346395954,0.9999999883653748
34,0.5513423107179937,0.5861252568550049,0.7766352606665631,0.9822893836875438,0.3088749950817535,0.8235381389774109,0.1731096524103233,0.4856190808749536,0.7377980768516352,0.8717262230710123
35,0.5966186840539535,0.5848693754485959,0.8164480174422295,0.9370712906334591,0.3636041539369168,0.6884426581801258,0.11715022156011037,0.47229722453647843,0.5394537560708335,0.7037725542239697
36,0.6337891928986075,0.5890066497297681,0.8477855126042999,0.9012534898868904,0.4351420309186135,0.6083112496539621,0.074084928370629,0.4641379291407534,0.3850424940997286,0.6121193600647931
37,0.6657470617879451,0.5935459937077664,0.8721687428928644,0.8904300206689683,0.5011391444567148,0.5354212516824204,0.03991576468408595,0.4592841208876598,0.2896052654055718,0.49826322241449694
38,0.6929898272976784,0.5936645136660988,0.8906313681423665,0.8911739171614445,0.5486843332403327,0.4590806135516857,0.015372431088146468,0.4561591109489893,0.28328405148720776,0.37401152886661804
39,0.7167190996095487,0.5882895293249739,0.9054944415499044,0.8985384378917931,0.5859010285625845,0.40113267373325634,0.0019996771228685353,0.45397932605289715,0.3173820493205774,0.3266174928250659
40,0.7357709829544605,0.5804986375747041,0.9168202261399243,0.8898639814296438,0.6143099204861809,0.3371554065113689,0.0,0.4516734600486907,0.16027467174436705,0.28765855512154237
41,0.7520922498250662,0.568627083382357,0.9262177295442178,0.8632743735189614,0.6507135173332732,0.30364827946251316,0.007727107028485882,0.4501693970790897,0.04754658580796977,0.34714326636705
42,0.7689663504350578,0.5486500334032544,0.9359794482343811,0.814675639567099,0.6960639025279552,0.2938566244958481,0.022653835658419493,0.4492844593678327,0.16229663764354538,0.37858716221836963
43,0.7888009356082101,0.5208730933564428,0.9467064778750096,0.7484652097398296,0.745815521881869,0.3378536412023966,0.04366921468252601,0.4485779592400461,0.43711300686829396,0.4611231674170488
44,0.8125871785157346,0.4783500807425077,0.9577949139432615,0.688834975871042,0.7976121679033983,0.44177745509337923,0.07410400799876872,0.44746328564524285,0.2450969724840459,0.6631078658564366
45,0.839087650688192,0.4228184464690105,0.9671900766323496,0.6547369867989281,0.8465749893055565,0.5103846424480184,0.11386188272923949,0.44489251323262813,0.2780708092242997,0.7966586781518488
46,0.8653562570837778,0.3576134736751824,0.97444676191032,0.6404203044954467,0.8794573900865256,0.5843887219266676,0.1590430876677042,0.44039015861148173,0.3166532454298078,0.9268618455515246
47,0.8841038077620585,0.2992836966876317,0.9804553778410812,0.6180387675652548,0.898259320538814,0.5158695800103056,0.20323389244792925,0.4346050089287805,0.5982159539027115,0.8465591098205624
48,0.8998907448338936,0.25194381003625693,0.9844973248567567,0.5808118175935784,0.9065949076944131,0.4006564836860482,0.23798706050945648,0.4279893647639362,0.3941775839820334,0.631281134582481
49,0.9121182393818223,0.21827423786152989,0.986400326318271,0.5634831411931143,0.9064679249269967,0.31379695174752426,0.2627662995128007,0.42002265945181355,0.39327184324810716,0.4484471761504499
50,0.9232952450870218,0.19102135343351345,0.9877453012749577,0.5821620692614277,0.90268902483789,0.24199525935185542,0.2815667684981356,0.410228022843038,0.3133806909085078,0.33724310663796353
51,0.9347140659388514,0.17017700409580952,0.9891099382393651,0.6059992093812495,0.9051542664685795,0.18383915093175543,0.29419306706909726,0.3986852074677329,0.0029911918321796132,0.22787700095205032
52,0.952039841176901,0.15328132114952142,0.9907596743157191,0.6174759389831651,0.908192372690456,0.21467031099069586,0.29801523124377033,0.38592193293952215,0.006938409064937947,0.1600733732008054
53,0.9717234227951639,0.14338168518246402,0.9922249620339347,0.5905736467717907,0.915871895828206,0.24530780281889367,0.2924806854227661,0.37265354854183397,0.0027385067686003304,0.16520271398634293
54,0.9876357720463466,0.138602774701033,0.9934828623850015,0.5559321955852226,0.9375305789044479,0.2347521836717813,0.28141946300412835,0.35913600080028046,0.012291399920523256,0.17288622247141527
55,0.9876158383840485,0.13573441899322142,0.9938864016863124,0.5553976576599101,0.9591536605023179,0.2373640860143559,0.2692355260221114,0.34536379762012015,0.1821809437886451,0.1590411551661707
56,0.973401453731579,0.1305402038408984,0.9933667629108428,0.5766577050317445,0.9761709353876007,0.19906146847056713,0.25531666363600947,0.33169412130797543,0.35209631579242856,0.11709738689117763
57,0.961967600145214,0.12842252406139645,0.9925667064538376,0.575858775252664,0.9870056463118221,0.14083116173981808,0.2418402964023909,0.3186447244965698,0.07904006365741063,0.09528144119712968
58,0.9533555367602056,0.12485823633891589,0.9922731807671531,0.5756041347417549,0.9990548916860994,0.11952096963988107,0.23173774463499586,0.3062841974774104,0.28575916761529396,0.08564698261851929
59,0.9507989185417337,0.12232058585455868,0.9922848843431781,0.5895760748025962,0.9999997568978685,0.060486078210899526,0.2230323132264652,0.29433712853120114,0.010085959426472089,0.044505840190127606
60,0.9494412284885104,0.11956769088544758,0.9921271201383728,0.6172572058028123,0.9918013701656132,0.06909291333538407,0.21512914847291073,0.28254477390908717,0.09023176258749377,0.048592575879341245
61,0.9508344836893808,0.11516130948589678,0.992309227781307,0.632034186742071,0.9824006030095515,0.055975051724736005,0.2102721360608141,0.2712644889252339,0.1285412532543335,0.06466244116898437
62,0.9521383861776519,0.11416311226736302,0.9926968502192254,0.6368551018714275,0.9776000047762099,0.036858578026396346,0.2097188060799049,0.2605161543257144,0.03506842922718292,0.01923243256229334
63,0.9546986092490445,0.11332959690438281,0.9930254866339808,0.6447256065998024,0.9721524019437542,0.03045105170865822,0.2111846298320939,0.25024194141232664,0.006797103375505702,0.009297275069079935
64,0.9570903425518419,0.1096505626603185,0.9932333421441691,0.6466505839287789,0.9667951648005878,0.03884281239170901,0.21158713579321856,0.24056434279698793,0.030871705134589575,0.02433926080442794
65,0.9595229250343917,0.10737916341017732,0.9934678818076906,0.6449267194129852,0.9643418567382956,0.03538128150685478,0.21137146948138175,0.23148100565463844,0.006079961558929054,0.02494800359486039
66,0.9619934658071514,0.1052990251049228,0.9939964153009387,0.6335380164650538,0.9671684771806962,0.037613263380457784,0.2118515866418612,0.22292470175816864,0.011136984188791894,0.00721381724277081
67,0.9646662762508076,0.10535804219262306,0.9946251314049518,0.6153454328344188,0.9692525989927605,0.04012082612509161,0.21398812412018992,0.21484670609991344,0.015520536825591928,0.0159799956585209
68,0.9671746554696083,0.10709614307073914,0.9949359783841513,0.6007893347390166,0.9671790998376315,0.03961648020200896,0.21779200020077882,0.20721227150564922,0.0016615734232823228,0.02462580363169992
69,0.9705508604884818,0.1062574182169587,0.9953376451132975,0.5836955725129702,0.9657213035607212,0.05062853974465846,0.22200123424407742,0.19996594805966053,0.09947017586639155,0.020439623675374923
70,0.9724183335629724,0.10661639518155949,0.9956564505241939,0.5798763803806287,0.9648508857733527,0.030355932060925024,0.22597240146619677,0.1930351488423806,0.007261598419339841,0.004299758115120096
71,0.9765144619529059,0.11309903384562892,0.9957664641388203,0.5899035863613002,0.9631523905282786,0.05408071080118944,0.2291373061290459,0.1863409347210526,0.012209456624665415,0.06454061095490093
72,0.9772167545130829,0.12169136830242563,0.9958156191581218,0.599849123976077,0.966056425455482,0.056085763668054095,0.2308757498278758,0.1796931252715944,0.002186990745306261,0.0811692059440215
73,0.981736939853317,0.1313025706800224,0.9961110174169696,0.6069186200729249,0.9655632669144564,0.06927563627333938,0.23271389925697686,0.17342304743177678,0.10491747632065514,0.07820632882272785
74,0.9829159914434309,0.1401894841946238,0.9963081056372146,0.6086139307151127,0.9660133920927788,0.052651723439624085,0.23513903539557363,0.16740900654904392,0.07198007078914977,0.08501929800228229
75,0.9842734185119355,0.14429344579568007,0.9963024879207233,0.6009457621544124,0.9632359012890855,0.037171034828485765,0.23804303352676717,0.16145167318291404,0.03042640515947553,0.045794987223689736
76,0.9855893902812541,0.14613618060718134,0.9961877928756872,0.5980496284525909,0.9584895613985165,0.031991165127934276,0.2420747515965566,0.15551917288905784,0.09515089964348103,0.03040741161529907
77,0.9866152636185684,0.14530675472168453,0.9961798344439902,0.600414845945522,0.9582047145924018,0.01562505162634615,0.24577441345313222,0.14969401919205463,0.0019238660621058502,0.018415882658302317
78,0.9883486968931482,0.14313403089129412,0.996205582311243,0.6109242188751389,0.9586871273356925,0.023999616624307562,0.24743520322119172,0.143980879582143,0.06111631304966544,0.02509425629035199
79,0.9890266712874932,0.14045189233408958,0.9961877928756872,0.6039495321623689,0.9599765781744471,0.015757723382190458,0.24837997034984236,0.13842235508868883,0.001849001754371406,0.02376613373681342
80,0.9899436880180345,0.1376169475723273,0.9963338535044675,0.5928355362475319,0.9620578198192773,0.026069474687268404,0.25055801938832034,0.1330402260658254,0.03742053078308091,0.047596712199854146
81,0.991287447422167,0.13591618279350404,0.99633525793359,0.5890078100804148,0.9630880586994998,0.02558425971363853,0.25357606328611776,0.12768132020525008,0.028037279558790505,0.04841712450498719
82,0.9929258392607118,0.1347996898900078,0.9961714078692537,0.5775924833292204,0.9620509632603759,0.021735427754522404,0.25531166660993837,0.12248086952247857,0.0020228145401359867,0.04051985866456013
83,0.9955379673125875,0.13195848421748813,0.996192006163056,0.5633425321566455,0.962329842649166,0.032447546371154386,0.25656840894780414,0.11745585730207009,0.11703136157428218,0.0587305821427525
84,0.995609094172392,0.13134211613942234,0.9960342419582507,0.5611255552381066,0.9617988666659836,0.007635874492074809,0.2588670237379425,0.11262075872250094,0.006043119116167174,0.006628406772379249
85,0.9971108213521441,0.1302417416708448,0.9960557765381359,0.5653797100423469,0.9617400783115232,0.021102192450226914,0.26303342693483095,0.10774260029965176,0.03470594027912604,0.023093365939984484
86,0.9982158557248466,0.12932141905524105,0.996058585396381,0.5665904688749188,0.9611292951537975,0.016160160238084247,0.2690953767794851,0.10287182971110337,0.00665746201032825,0.016958935719964863
87,0.9993776539970137,0.12655265989829473,0.996073097830651,0.5668820869818438,0.960889096347847,0.021854898878726596,0.27366388020654264,0.09816247742487473,0.016137932298992422,0.03172170710586992
88,0.9997522468026591,0.12154804435484849,0.9959808736515817,0.5649491957007978,0.960175972303658,0.02790945736034903,0.2751969969274665,0.09363132219281461,0.034294675340735215,0.057872390335419084
89,0.9986296920648497,0.1176664445326101,0.9959382726348535,0.5662139941966982,0.9602703346613913,0.02001051599781828,0.27446468040022093,0.08925707623379205,0.0118120301472189,0.025700213441670807
90,0.997107810548678,0.11285327725681238,0.9959111203384782,0.5721208847266149,0.9623290715867482,0.02192911488609891,0.27342227071320563,0.08500951656192922,0.02123233381448954,0.03156441224084969
91,0.9940800455736146,0.10798536448792194,0.9957163728334373,0.5734939323917024,0.96340790308668,0.03896714711379228,0.27386323904960286,0.08086772187388654,0.08566287797269365,0.061063157164554786
92,0.9918920200657281,0.1053927361271864,0.9956470876633745,0.5714079725608158,0.964865021095322,0.024584551265043074,0.2751627507337515,0.07680048691881225,0.05439101999522863,0.03637027026781187
93,0.9907435849186987,0.10525900301713335,0.9955904423554184,0.5661817707340095,0.9661870884749721,0.017879909398431724,0.27624922942341923,0.07286775446156106,0.0031485087189668122,0.032803859893531635
94,0.988846171222273,0.10530277936210904,0.9956213397961217,0.5596584645001246,0.9693816693613728,0.0260852202969147,0.27760382527206395,0.06902337148532203,0.025553887589728624,0.05101153068925774
95,0.9878069829051402,0.10742113220263089,0.9956386610886367,0.5527612368903542,0.9709707668145943,0.022800678459290624,0.28031726019991066,0.06524047929797697,0.01884083441853717,0.035698414103912335
96,0.9867607640196462,0.11051846867666056,0.9956498965216208,0.5448774412472894,0.9715072203872044,0.02415650776391338,0.28314209711881955,0.06155776791693833,0.01306744270032655,0.03298835330973063
97,0.9853120111220264,0.11300367089718856,0.9955529909121406,0.5354513557330637,0.9723309437851866,0.02640970768127827,0.2845989400681409,0.057953751805022616,0.05586849646393941,0.041582365248645906
98,0.9842177308959145,0.11538910007803158,0.9955979326440731,0.5307896695892442,0.9745069578062403,0.020239624344088648,0.28572812831490185,0.05435096200938184,0.00467743519391009,0.04461197226312296
99,0.9845003555830582,0.12042821423027925,0.9956597275254812,0.5286695338575401,0.9755737352652609,0.03251457014348775,0.2866805937843842,0.05083338549001606,0.07307974099115211,0.039022460552467594
100,0.983383622833332,0.12374767558756752,0.9956569186672347,0.52671465776183,0.9756671960219462,0.020631382178058794,0.28626576232174106,0.04741889931177573,0.07685790576774672,0.03636974643021313
