Frame,Center of Mass distance,Symmetry,Grounding,Arm fold,Leg fold,Kinetic Energy,Potential energy,Bone length coherence,Torque,Center velocity
1,0.0,0.9999999733690755,0.0,0.9095628425985236,0.0,0.9999999941034068,0.703909125984946,0.9999638769082042,0.15057482333449065,0.9761598346979172
2,0.03643143232594382,0.9499364677156804,0.07623836599165001,0.856452400963097,0.0165913979593842,0.9999999941034068,0.703909125984946,0.9404280410092908,0.15057482333449065,0.9761598346979172
3,0.07917395167838495,0.9015849655011678,0.1565620766995674,0.7756884302989697,0.05077610630835374,0.9974316862968818,0.6679214814247881,0.8908854455173418,0.9643825457908677,0.9958595029743074
4,0.11344087192285413,0.8593196962891438,0.22127268957176027,0.691570110026803,0.08977130968037791,0.8971814895131696,0.6309886226250963,0.8405836183385962,0.5411426275985621,0.9999999752364342
5,0.14345625987295438,0.8202084472460273,0.2766825850162532,0.628115402952468,0.12041327646532478,0.8472187750875927,0.5978015003402657,0.7936792727556118,0.9999999985711051,0.9502785617102602
6,0.1643166733088357,0.7807107392277486,0.3175470389451262,0.5830945656560691,0.1401199703619711,0.7093070412003534,0.5717534072412799,0.7510725450374327,0.7346233661721261,0.7832837102073376
7,0.1828949884186419,0.7452019086612174,0.3508461755817287,0.5196636514401861,0.1507512962035699,0.61528191550848,0.5519788664177325,0.7125601312758384,0.5218722292527272,0.6849804742197428
8,0.20217211972649507,0.7149620802543245,0.3817384993455202,0.45482294129657264,0.14448424664991902,0.5601650013704722,0.5297457497627043,0.6805839451401935,0.4899146443893399,0.6090748511705733
9,0.21597087236765938,0.6883813507594834,0.40455185672832483,0.3998680893070183,0.129995600496486,0.5098318220456454,0.5069750795622524,0.6552761229174158,0.5515625290251144,0.5960623591231704
10,0.22937876483089378,0.6684832929613851,0.4256041315212742,0.3570348671905628,0.1199500670546784,0.42445592493178186,0.48503576430254247,0.6336758274149074,0.5673850398086803,0.407243396056165
11,0.2427057517774178,0.6497542127448627,0.44576669271414204,0.32846525171004565,0.12689290700834727,0.3553617647860171,0.46276084943543444,0.6145602872647757,0.43211978501861265,0.3873440831621891
12,0.2576216087717979,0.6277591694509647,0.4682461781892891,0.3073405388937895,0.14992858556057576,0.28793550334657736,0.4434009149283767,0.5976069940751249,0.3266319398852666,0.3845161290832078
13,0.2657433721536506,0.6133597940994402,0.4828356467696571,0.27083550308038773,0.1810014492167186,0.21840754357889258,0.42806715172821713,0.5839153211387297,0.14213858302578639,0.2938853124055564
14,0.27655617725481146,0.602498305602859,0.4975737066935463,0.21949377725843766,0.19189895279742955,0.21726694510297379,0.41571669085233554,0.5730201236134239,0.17961713492824194,0.25474542397152444
15,0.28425774679390914,0.5984326295024426,0.5072303095612779,0.16711045620779683,0.19004304322369162,0.20354195140591305,0.4039302509520965,0.5637774183385966,0.34361727409791754,0.18041081250837993
16,0.2942565648363022,0.5958543539346377,0.5176738962113535,0.11654470979456565,0.17717697158068282,0.17397647998760649,0.3930234157760897,0.5548802371349947,0.211836817793916,0.17036373722917
17,0.3072436364793582,0.5948763271272215,0.5325825610111379,0.07709994778005558,0.17345451763731518,0.12927581047327846,0.38271341169353734,0.546622302018509,0.021973721650098085,0.10636961525428025
18,0.32791878583729417,0.5865590213372005,0.5577495318968517,0.05598949418399015,0.18691480354574985,0.14653065118525063,0.3725113918949842,0.5389019607355474,0.09623839508712662,0.17683760283004454
19,0.3482849778608913,0.5729786353464259,0.5836319425846952,0.05435343520773595,0.2120157987129966,0.13707067812000284,0.3640471932676567,0.5314169315425292,0.18473421589500827,0.18569257175842332
20,0.37369246092737757,0.5531132911918107,0.6149370200804866,0.07007774609394306,0.23424899485446996,0.206973200130798,0.3567361316063402,0.5239672866238981,0.019414880841587993,0.26858032952660005
21,0.39956687944713737,0.5331286848472085,0.6452790055349463,0.08241928715286521,0.25024680788368325,0.22570019983416403,0.34969485663855887,0.5164154936263857,0.963217780069827,0.2915384829126331
22,0.4127269464782199,0.5207768416120689,0.6607691944815902,0.0843119658269812,0.25844345295633203,0.08883156302973871,0.3440979180021861,0.5090981593929169,0.03171314923468993,0.14801362381980093
23,0.42634281350909553,0.5110962829619199,0.6768482454192165,0.0690800814895722,0.26323610038638895,0.09266651001298912,0.3405019156882459,0.502122379234499,0.017458993378493975,0.1413224362436279
24,0.42323236532013614,0.5120729250200977,0.674580851584768,0.04536625145516666,0.27317489479822166,0.09602421652466525,0.3396745008276307,0.49584805001993304,0.14097691999111187,0.059876542886374624
25,0.4207270457911046,0.5120404546296934,0.6727115357940732,0.021284906038196084,0.28384513224710134,0.082822598436899,0.3419191667576138,0.49022208975576775,0.025082280468791983,0.07297518530505558
26,0.412719727698295,0.5168557260270195,0.6641519406229432,0.004137796707340708,0.2996175517884484,0.0989249644847225,0.34583827927575217,0.4844677759115642,0.015718078366506554,0.1536714004367921
27,0.4007029018270477,0.5213541938626688,0.6509805104196192,0.0,0.3120239828277289,0.12774266025307518,0.35141718475242967,0.4783836595855624,0.03203466667645235,0.19093357591558555
28,0.38435243264151087,0.5257849594127656,0.6329917855486115,0.008213622035570033,0.32172399126119317,0.14218421792549923,0.3595508320259452,0.47209498312411735,0.6929658842583998,0.17616732253577724
29,0.3769880572162236,0.5217213066391299,0.6251879883222929,0.027840900431446148,0.32352933116603244,0.06401536429877251,0.36726912838005243,0.4655775394787811,0.1847036245973943,0.07840255338810324
30,0.3694601765362681,0.5182751276299877,0.6170007887404765,0.051940546905703516,0.3223285766298979,0.043864872576781094,0.3735872084267012,0.45903264204398875,0.08643251997842291,0.009231958310930193
31,0.36567433177631853,0.5120456863037365,0.6123981260134361,0.06714833650330716,0.3168513976299558,0.04602762644083964,0.3792642233308516,0.4524919097321246,0.02910022876937907,0.06485269363385433
32,0.3632397850238965,0.5075604245405195,0.6092905490267464,0.07025273887284128,0.312795978209484,0.051901775830464444,0.3833289319320059,0.4460487583844649,0.0552228323473123,0.10823984622539604
33,0.36063993232962294,0.5055158926927102,0.6066379183757739,0.06770583093968521,0.31494301304487093,0.04584568876594951,0.3864009535766511,0.43988905888130847,0.06963632929700468,0.10699018434383159
34,0.35576862002151743,0.5055256396935259,0.6020866205576046,0.0673328739096722,0.32340155471798815,0.045420765825715,0.3883846753014701,0.43414428500157937,0.20808176246812987,0.0943206881527428
35,0.35259026859826115,0.5053100884772928,0.5988139420781121,0.07310921278447222,0.3280220711805404,0.022820139395865597,0.389223985704177,0.42874524018638477,0.17694874347999479,0.06734041409727096
36,0.3511743779518289,0.5031987891472105,0.5976600660895469,0.08659481818922615,0.3291596294124761,0.0048770322811786115,0.38979748135882086,0.4235329192288791,0.07320849622018086,0.0
37,0.3498753003758221,0.5009541210204667,0.5962310209463184,0.10074237396157455,0.3259592226488831,0.006453426692792664,0.3904662296466782,0.4184922656756891,0.06346969195438945,0.009899593938879462
38,0.34808338044763143,0.5002145569022758,0.5936095761328738,0.10962556843757672,0.31878993546173273,0.0,0.39160047442050283,0.41363545106548183,0.017637349085933045,0.024221928625715088
39,0.3409444902994689,0.503428974543693,0.5854352177782727,0.10820631334834649,0.3166897022250356,0.022766468377963252,0.39408526003278654,0.4090243591880886,0.06950246496989301,0.037554522803496006
40,0.33473539696954896,0.5071353426055295,0.577946947849304,0.10454973066695848,0.31373632965962606,0.018594855933587038,0.3967298620529983,0.404720020918113,0.07282718734826715,0.0346286445814452
41,0.32961463710639605,0.5106069043650534,0.5721096928483351,0.09993893850685305,0.3132632075072939,0.01831149005947562,0.39812476390931417,0.40087052278757646,0.08950490047480417,0.043530660002468316
42,0.3243290644472579,0.5139186961974463,0.565645052174723,0.09852351671177627,0.3106880607010029,0.015172723702049303,0.39887980062650413,0.39740111761618885,0.10353379346893682,0.046267444258758124
43,0.3196275074360025,0.516512487053368,0.5600939730946021,0.09994216006610147,0.30922060622369896,0.008907395894234869,0.3997183405756,0.39426532803604086,0.06443738971771643,0.0392427127935898
44,0.31460351495370475,0.519000569508878,0.5542365390222851,0.1029935288304368,0.3063550491024751,0.01191901918700624,0.40060785471217436,0.391412926517499,0.036045080520653854,0.0428532777238041
45,0.3080882551819936,0.5221127320243281,0.5467170832557935,0.10453537517644698,0.30300522210121783,0.02164227943776049,0.4021557001699474,0.3888820153355482,0.03217794561989818,0.04234342451480631
46,0.30017530481042604,0.5265940023115739,0.5369430748820686,0.10484268132667234,0.29519322953346333,0.0367259870942235,0.40437432726561984,0.38665509660737163,0.17869617667407414,0.07244404001204173
47,0.29461125951797085,0.5295228695111209,0.5301830859824499,0.10295516148105724,0.2877335321025767,0.014706675537152384,0.40612051483977624,0.38478940410972745,0.11962026510689946,0.03714847791081247
48,0.2910983461461917,0.5306757024542671,0.5259197985461642,0.10253902806294873,0.27871881108176455,0.0130508365701981,0.40632485130373774,0.3833395048475024,0.08114921556243535,0.058185248442811935
49,0.298863211307315,0.5291980773988386,0.5345435998533855,0.10342926028796091,0.2768809268414723,0.048153193361893935,0.4019218549887251,0.38238320212260685,0.3215989303807607,0.10779171052464247
50,0.29460997169312014,0.5295356046006814,0.5292530142396819,0.10055794389901841,0.27029416239589366,0.013252948875812565,0.39781509295079504,0.38154770615351635,0.0742841173214947,0.008295978804920954
51,0.28999853197509123,0.5334203350541628,0.5233680632518984,0.09574504851118931,0.2621317274935789,0.012192654527833299,0.397179054742922,0.38104046187668356,0.054385016543611185,0.04079671767567007
52,0.2864847235825478,0.5379950222354295,0.5188130965116677,0.09153325118453208,0.25684631148082643,0.014659472932909269,0.39536691199071045,0.3808610221507021,0.03604718710985426,0.05297471445143839
53,0.28345513153148827,0.5442192798486178,0.5144525826407369,0.08933667238404847,0.24995422234138806,0.025131050207350007,0.3930335207887805,0.38099701223246535,0.10914715406620679,0.07132088006038961
54,0.27269106163686124,0.5549802842672169,0.501176588158635,0.08576244598533837,0.24393614627316504,0.0802483898316134,0.39321102161899535,0.3813050447635519,0.1590190096294552,0.14237879670548176
55,0.2700342902799105,0.5609320147366693,0.4974306187331223,0.08442227332766426,0.2387128156688845,0.06440531345040185,0.39447197959155367,0.3819074704540649,0.07620271672278726,0.07863376692433562
56,0.2644417439831514,0.5687877385662929,0.4897552337789816,0.08677174797424511,0.2310597362699047,0.0608031604863571,0.3946534047875779,0.3827735091885939,0.20884249391716034,0.09673189283481717
57,0.26358788824309254,0.5733731908613542,0.48747499871731764,0.08605037743853089,0.22287588934826985,0.037652603586314115,0.39396168836108697,0.38388701836491074,0.1150448078303041,0.062678436547466
58,0.25980484464003695,0.5791376325692194,0.48235501797950914,0.08475691544140623,0.21683777409167898,0.028546493972862096,0.3921465181161345,0.38527309605757487,0.030095159752765884,0.07254764161795002
59,0.2539052057034987,0.5866977394443628,0.47487958927776075,0.08114729773410226,0.21311448987158602,0.04203380878838078,0.3905403248808741,0.3868100994363143,0.10548984727118056,0.09307960745480928
60,0.24841467464380007,0.5935570039408722,0.46858738794107463,0.07962820979312218,0.21236828062133004,0.037822519126082456,0.38865335777012433,0.38856290452741615,0.04485275013795555,0.08789050491369428
61,0.24417727445533768,0.6008081331228091,0.46306566023745077,0.07917559377476242,0.2078667502442246,0.046320347178227306,0.3867227065575947,0.39051820541626797,0.10681888145504684,0.09567150690885508
62,0.24171953076436545,0.60702763915301,0.459831505439614,0.0806574249850207,0.20498461531089354,0.03981409145941106,0.3846062844021738,0.39267204171317177,0.06242520115221296,0.0962075989859333
63,0.24178317788762319,0.6096902025120118,0.4594554409282391,0.0861468792232826,0.19978736139320288,0.035779936947504955,0.38183139753367074,0.3949485826456566,0.11826947658841251,0.06755994486317449
64,0.24152539618909283,0.6120784861473171,0.4584776731986614,0.09548212797172913,0.19405092975965207,0.023019532205596275,0.3790763398231483,0.397285908439759,0.09526872709026024,0.041047044983328014
65,0.24415410304879331,0.6114273442871833,0.4612165235180993,0.109117967644477,0.1907677011296468,0.02041462823635871,0.37561670062069136,0.399708357374889,0.14193087269500038,0.03871034369249879
66,0.2462533164130836,0.6094761132563019,0.4631922380485979,0.12683049873839736,0.18695163538044987,0.01476882010319306,0.3715550552527716,0.40227992600137275,0.16519591637094144,0.016432210160350815
67,0.25320251860140897,0.6038811823713293,0.47160140741517587,0.15285217059980916,0.18569502837294777,0.06850871647903146,0.36684696124817734,0.40495501403521794,0.5531469344167641,0.07728137195767992
68,0.25119405253025573,0.5995381290417227,0.4701741967329781,0.1894500435707279,0.18761173610595167,0.028070304307974032,0.36189717831500895,0.4076627257506709,0.4376960391842558,0.04893969720959218
69,0.2610524980189269,0.5876902346023184,0.4827897852438783,0.23716278907912525,0.1900321727307054,0.10201072439740133,0.35705255524260243,0.41031368932385315,0.17983023977555082,0.10196028327519845
70,0.2685629939596216,0.5760720740381803,0.4919052221074369,0.29093026538823474,0.18771344471824178,0.09248105687101493,0.3526434126714864,0.4129060138584181,0.5173670737935843,0.0810054191232503
71,0.2697927727454411,0.5654457573227728,0.494020355676298,0.34859331910080643,0.19077486712493702,0.06664358510008257,0.34975024253594705,0.4154518714047687,0.025600408268680295,0.028720294673882346
72,0.2747035578810344,0.5526080764318698,0.5010830306460513,0.4075601336148533,0.19532446330378242,0.07547604665423295,0.3471014011151535,0.4180064644835253,0.05737233439432099,0.04222822457527434
73,0.2776091230937859,0.5407839716636347,0.5051720442843802,0.45901467836504994,0.19483884525157852,0.07792979261873469,0.3455013588696617,0.4203840361536129,0.0254142355696821,0.04086030194173854
74,0.2836014290159977,0.5300022031428325,0.5122292158710364,0.5057156540067431,0.1935249438512327,0.08270829317923191,0.34402551461877745,0.42251416862968094,0.43884502503691963,0.022865683267301
75,0.2831801663992279,0.523445613057795,0.5114165496342568,0.5473947157232228,0.18912905783680814,0.04560606369704846,0.34340898208073195,0.4245928609210322,0.07961096539768635,0.06467176407547393
76,0.2819978351305341,0.5174379831037398,0.510132426912483,0.5866119270235384,0.1833842237309281,0.04601497906102627,0.3459200387858578,0.42662742210469073,0.16211614194602117,0.07482496471511284
77,0.2891212206583904,0.5066218185822355,0.5181783729949063,0.6298107834677532,0.1784213649191221,0.07627086828076599,0.3473960088939189,0.4284926448970284,0.5017256233584549,0.08448265717993933
78,0.289752537898208,0.49938306771941865,0.5192478637760416,0.6702365991423535,0.17828805711552606,0.04765596458319458,0.3476134256133641,0.4302320587812731,0.03577823612059767,0.04095921151757654
79,0.2905166468669374,0.49074494111611483,0.5206273784714298,0.710085874090688,0.18138760029982356,0.06572375140845654,0.3493096304714712,0.4317391311791606,0.035723674239668796,0.03431447268609994
80,0.29347123651067547,0.48087551740492634,0.5254465076001393,0.75181675886217,0.18725605308256532,0.07286081354604118,0.3516296429956679,0.4330438669626261,0.10601606946420426,0.05717581614663833
81,0.2978637871505394,0.47008210304586723,0.5317185298654871,0.7925577294063504,0.19213891256614826,0.07105551559705421,0.35403452789795276,0.4342361675941029,0.17636488751717175,0.03761326426599653
82,0.30909019315744707,0.4564840852567051,0.5455393592738235,0.8235005782301874,0.1946891978481362,0.11218643046714712,0.3548549969291605,0.43508048840974267,0.3152701638949908,0.08383556261737278
83,0.3167449015208373,0.4468058163702528,0.5546107690726341,0.8410959120997258,0.19669098701877819,0.07091685438370397,0.3561935660353925,0.43555707133939436,0.028747581921889004,0.06346040244783167
84,0.32515895805614287,0.4360492984839066,0.5639573480261081,0.8511635540956122,0.19563836227189024,0.08062495623348476,0.36025454870677814,0.4357689217746461,0.4645444115783275,0.11934887416754698
85,0.32660325094276893,0.43357956873264847,0.5654120756237722,0.8597956668422714,0.20146118059796544,0.01929589163143397,0.36575156184978963,0.4357240806832304,0.0461159674732182,0.007234980112708615
86,0.33154157003109236,0.4280834476330241,0.5711410974239113,0.8655812025241211,0.21007933984403496,0.05375504571872056,0.3702003760532302,0.4353834343715815,0.0459763501719033,0.07980805732441518
87,0.32254438494385784,0.4320231239085509,0.5608185852018855,0.869518370392842,0.21199077464256205,0.05636299291026701,0.37568054358383685,0.4348804166155484,0.03888845616830985,0.0689204033456294
88,0.33329068406599877,0.4232828391500945,0.5721463820689553,0.8725338903527847,0.20646532061357267,0.07299283201847345,0.38105256345664595,0.43418942852144643,0.37611050249013356,0.1071957961707919
89,0.328481207131168,0.4233841695886875,0.5667787490919449,0.8740574918469133,0.21023903844346753,0.027258649449836574,0.38786936828406193,0.43321949846491975,0.0995714586977205,0.04747264966860235
90,0.340502050015862,0.41528639207083734,0.5810270079205274,0.875895480140422,0.22496488494930383,0.09129946902436634,0.3964580632229357,0.4320065281343996,0.26535760096091343,0.14949124435788397
91,0.3483152042797924,0.4129475132570958,0.58983608979189,0.8789802433550581,0.23853860226859583,0.04662707361163624,0.40150424272110574,0.4305179201513391,0.026753074472538635,0.0657149883598871
92,0.3589220312750643,0.40791585022655874,0.6014042010540337,0.8812800983833431,0.24700252400111994,0.06749009302708697,0.4055986978392289,0.4288714000989306,0.14952598507938616,0.10363998526185611
93,0.36422657889256427,0.40581420081256075,0.6081495142654014,0.8863362530104436,0.2590409479507632,0.05644300001160231,0.4103383854022946,0.4270180058244475,0.40468653653985215,0.131847757103702
94,0.3844196224882605,0.39345309101910086,0.6314416659773282,0.8926031157401936,0.2703699145127653,0.14073572983416902,0.4136294399941722,0.4249286034339327,0.062479107540546704,0.17361674350979084
95,0.4026275602460619,0.379443920940149,0.6517436462085585,0.899165668165868,0.274615948017746,0.1459344943755618,0.4174800799164359,0.4225122112576079,0.29888579165578977,0.20813436002493796
96,0.41492927476530034,0.3696609405271741,0.6656140060647353,0.9047421697971019,0.2816092011220553,0.10627821175287094,0.4262885992561982,0.41973543887980286,0.23759964501836534,0.15911380292861704
97,0.4149005519201633,0.3701378778213259,0.6661991991336563,0.9076091932917902,0.29847581024806086,0.06992799825965942,0.43934806999706894,0.4165175426678443,0.43737127083978455,0.06463388444309241
98,0.42376752654439465,0.36358390918352074,0.6773508877417386,0.9047874744700745,0.3209642410795544,0.1492881112375083,0.4529111614647391,0.4130226787054926,0.11565813933657373,0.17106897664671272
99,0.4126618737036992,0.37507375910811097,0.6648325256654836,0.8960043154663039,0.3348957974311097,0.1488680744463384,0.47299424385423655,0.4091103965154845,0.04701744361895061,0.1627626633237595
100,0.3984914492924897,0.39515624407997824,0.6485645252416543,0.8823876923040137,0.35560807683479106,0.20235159893980534,0.5022655946632257,0.404627453316259,0.3057748185127278,0.31929050436546647
