Frame,Center of Mass distance,Symmetry,Grounding,Arm fold,Leg fold,Kinetic Energy,Potential energy,Bone length coherence,Torque,Center velocity
1,0.07556168446867155,0.8372351005380535,0.9999999892155631,0.346410981373271,0.2573092416420058,0.030343870705466056,0.7353752508375593,0.9920912161701232,0.054325810201053,0.02222344304365212
2,0.07410149501715721,0.8383104455581897,0.9988765210141854,0.347435025703453,0.2563320068801801,0.030343870705466056,0.7353752508375593,0.9919556310435966,0.054325810201053,0.02222344304365212
3,0.07308796066821902,0.8390698250189972,0.9978855665357851,0.3455752566990553,0.2549234207926095,0.026642120300414723,0.7387436778838492,0.9917983712275862,0.03459415729437819,0.025001010853288326
4,0.07217162203145501,0.8401240472319118,0.9968566032737546,0.3456216243862799,0.2533178793353369,0.028252334439331468,0.7415349899371435,0.9917404274760476,0.04858855135487676,0.022145841567812054
5,0.07149410718316407,0.8409266625066156,0.9957765020604594,0.34634104844699454,0.2515667393645283,0.027994060334167566,0.7442218138266627,0.9916182146086127,0.02240378887554661,0.03021819884128651
6,0.07046787567110319,0.8422899465605316,0.994512388825839,0.3469443543806263,0.2492192879426609,0.03552339067140139,0.7472002297111124,0.991556193649404,0.092737611197461,0.027111589974929524
7,0.06987648494013843,0.842735101088829,0.9935925167263874,0.3478164987601505,0.24774509133789965,0.025206724577857862,0.7497591960378731,0.9915347548583271,0.05341456685783738,0.033961699926113635
8,0.06932155006579394,0.8432646511762485,0.9929849715443572,0.34870900609175903,0.24651613181610108,0.02097604604508717,0.7512086893035036,0.9915604987966966,0.03909328893796016,0.024803236881322983
9,0.06876803284312553,0.843724012721725,0.992236608989175,0.349630393263506,0.24546310466611124,0.021982094324470677,0.752489505995991,0.9916021661311986,0.030528459902553932,0.02962616837450491
10,0.06796043227772541,0.8443854002248233,0.9914322672980035,0.3498384615691261,0.24458919647431246,0.02525586286772691,0.7540182230976636,0.991663509075455,0.07022324216117184,0.03422940177980834
11,0.06735594166025957,0.8448601782585995,0.990764246475078,0.349719115400883,0.243607533338609,0.018363985137936387,0.7554944188617739,0.9917517564884595,0.04401443285679622,0.024081786407110017
12,0.06696077391068221,0.8455451694572376,0.9902694742627793,0.3501835858664455,0.24252002348441032,0.01802251219468631,0.7566613571510407,0.9918565406413924,0.05807283619300596,0.02180940429553071
13,0.06657449855982572,0.8461232964760377,0.9897565750254766,0.350188926196058,0.24154662862337245,0.014022256031934854,0.7577211262432586,0.9919755267942231,0.045435773412160055,0.017096014062326928
14,0.06624933234041544,0.8463965193687286,0.9893071752111141,0.35016773564439024,0.24085187923930568,0.013102134326285366,0.75870171725957,0.9920693103223159,0.04555169183433909,0.023886614152764482
15,0.06578021103140604,0.8467717940611089,0.9889007820377508,0.3497954191632971,0.24067333098708762,0.012396338644856331,0.7596154995967566,0.992147467558008,0.024256868928658717,0.025189129342606576
16,0.0648979661663506,0.8477037840438866,0.9885123592167467,0.3497506572230879,0.24070620689775682,0.024489319534001037,0.7602928041006342,0.992287219606879,0.0735438122211174,0.036163481757803616
17,0.06474113993768923,0.8483143526241995,0.9884523849283149,0.35118545983022553,0.240723949056671,0.018291193893821625,0.760057424160724,0.9924976728146262,0.036214614997957105,0.030707927550005138
18,0.06421214197430632,0.8490597986148541,0.9882287503951183,0.351324662236559,0.24031416780395373,0.01888590494626176,0.7595938120982578,0.9927724440698682,0.07798349821129795,0.01930571431912481
19,0.06381075981889762,0.8493742985596757,0.9879310880372506,0.35162996483813924,0.24003362422218377,0.011945749265497616,0.7596966604131823,0.9930818019750963,0.03000449891324248,0.015993387899528793
20,0.06339415795930928,0.8498973885795721,0.9876444084317839,0.3514071633513548,0.2402091494304227,0.016470224516184365,0.7595922536202311,0.9934408977691023,0.04675810067094322,0.029957073755626035
21,0.06311471657932835,0.8500301099616298,0.9874077230672749,0.35245517657158815,0.2399338025576814,0.01415749579329667,0.7593530068997875,0.9938112777329612,0.03789494076795638,0.015388839099917817
22,0.06250070620796065,0.8506055293057678,0.9869110864505032,0.352569822312968,0.23935395894280395,0.01504080220435329,0.75971426292827,0.9942137922158768,0.08019567434873161,0.012621802455454797
23,0.06258512833770989,0.8505108518578681,0.9868963592218913,0.35303898771307474,0.23880793415808302,0.00720598953535914,0.7597815617331487,0.9946403073638982,0.0447385567036305,0.008892649930615946
24,0.06270797803737495,0.8500615721725726,0.9869948749809456,0.3540547625391066,0.23860883695652782,0.008721082694679394,0.759231426596368,0.9950663165606578,0.03635178092206048,0.02145522418434077
25,0.06278084926434065,0.8493745027408159,0.9869241999508734,0.3533357069710325,0.2380772917449644,0.010157671895733933,0.7588803037553121,0.9954778587671876,0.04146801642514738,0.016265421126405537
26,0.0625561071246166,0.8490164742347799,0.9866182182755665,0.3529104763048701,0.23758874190382454,0.008540005680431869,0.7590346199567439,0.9958794576647246,0.03709041722638849,0.010452772993032315
27,0.06215573006789407,0.8489685132216963,0.9863664453353627,0.3530260235212786,0.23753156279785523,0.010085967125596939,0.7595225542189071,0.996276317454225,0.02673105024234295,0.017713418864010993
28,0.0613314987435918,0.8489895276349336,0.985972554639055,0.35178988686272045,0.23757064109583195,0.01573130746624021,0.7599431496592344,0.9967318606997333,0.050740516132568914,0.019394819505732904
29,0.06044031728132013,0.8481747188779581,0.9859077391658985,0.351952667397392,0.23842840083889694,0.020143897981025415,0.7604413656581065,0.9972076888788304,0.02279556038874188,0.0228034788645991
30,0.05864608452970813,0.8478796545462882,0.9857573490941489,0.34922382204770686,0.2394197034297317,0.044646779336537316,0.7619084468341808,0.9977935211688276,0.032044335542082275,0.08532089926890934
31,0.05610269190032104,0.84790773480117,0.984776547003132,0.3450595824778473,0.24003579587449542,0.0548191653925469,0.7655942066302837,0.9984453944620105,0.023512729319845497,0.11149765092426102
32,0.053452204675027606,0.8480607202501517,0.9834321547053128,0.34053257111627727,0.24070690219375854,0.05199201109945201,0.7713107640666225,0.9990555099101052,0.0345449276513051,0.08573647700142689
33,0.051466937441254884,0.8475520565091931,0.9820258453782662,0.3362233435455761,0.2402502323254932,0.052735641336691945,0.7780438076008933,0.9995108298297091,0.023249604122936963,0.07897379544011245
34,0.04890081279577726,0.8482476601152603,0.980296257715926,0.33008435087942345,0.23984545433473733,0.06607564808154627,0.7851692928506059,0.9998133145098779,0.04799351244532962,0.0741420035480602
35,0.04631702758936654,0.8488266910207611,0.9788715706876436,0.325171223935419,0.24028245470387194,0.0664475411124899,0.7921796822511793,0.9999701262416392,0.022976376517962218,0.0698836140741533
36,0.04355707320373581,0.8496157072961898,0.97732897182688,0.31997477700849813,0.24063009912807842,0.07883969442270003,0.799106396660552,0.999996221106835,0.023246549214327533,0.08454684677251499
37,0.04044026884471,0.8512215205911765,0.9759601229292065,0.31512347645929295,0.24122917722370593,0.0908882879453635,0.8058549999668247,0.9999288202864394,0.061098845853661876,0.08727934231087903
38,0.03604965964411948,0.8536395308744158,0.9740826049556403,0.30780144323874736,0.24388736761401883,0.11354900978899271,0.8131507854642458,0.9998248982836356,0.13478870528529133,0.09010237739154861
39,0.030388076736878687,0.8573827031194308,0.9717026221429154,0.29736066471027234,0.24706451964817816,0.15000777928930645,0.821869763604441,0.9997347398457862,0.14922179961728382,0.13237648035950073
40,0.024586554881213155,0.8613346184142381,0.9679075093332412,0.2851109663009212,0.24608155458689113,0.18870811046308786,0.8326477674191535,0.9996029438303541,0.03107359091741425,0.1923737529111008
41,0.019928855683855894,0.8646761287327619,0.9636178906547648,0.27482689441020186,0.2405820389456402,0.20573752469205805,0.8453236715532403,0.9993961019066233,0.051399802091176186,0.2064368398290294
42,0.015660383940913607,0.8674354277650076,0.9596116301216852,0.2624276708391232,0.23450705372608904,0.22737738903213514,0.8582473574769938,0.9990920770782177,0.02569241366192483,0.2332894073388028
43,0.010325892174824717,0.8702925172766535,0.956009553677677,0.24745936600072663,0.23228080327985093,0.23376165489078518,0.8710249128711612,0.9987339473527578,0.13061631010893313,0.22766623922472082
44,0.0049498595121135166,0.8717773682234184,0.954087619009308,0.227896017703363,0.2360727668353473,0.21193767988770792,0.8824352809683172,0.9983537452405522,0.1703397295974995,0.20437281140308053
45,0.0,0.870157957257178,0.9543072270555333,0.20869801611665068,0.24970263048604166,0.1994503542976648,0.8899059372520042,0.9979001097012112,0.23657364647355558,0.2338566904155379
46,0.0010254468227786466,0.8610691545111531,0.9595085708559316,0.19281223831573654,0.27187992732853355,0.2426068143238544,0.8850890647304908,0.9971589023539866,0.21627711878045763,0.33131488016304633
47,0.0015317105521381155,0.8488427576581037,0.9646685374108364,0.1928321371793483,0.29870515737224307,0.25831828810551494,0.8735403576264513,0.9959239524857882,0.36817716496700903,0.30579743950014865
48,0.006831570590762419,0.8341021495612819,0.9733123082301852,0.199156978761935,0.3232065114015676,0.3203236366986131,0.8599755017578511,0.9941603429408146,0.08968469762206975,0.362472032021303
49,0.014757693077689768,0.8179995709919322,0.9836250657328629,0.2059815912625815,0.34625389437166554,0.32718691363799907,0.8413808089054963,0.9919298258177565,0.04073859150951277,0.3379121027553093
50,0.025332123124321218,0.8009276018424054,0.9939923453159333,0.21044956116480076,0.364405437740823,0.33529912223845837,0.8230173494057119,0.9891787847264988,0.17046601698435404,0.3446927073016284
51,0.038491606822442,0.7805063110319378,0.9959530564638918,0.2159401366770491,0.3788989713751202,0.3767570286566389,0.804124758048599,0.9858073406980569,0.5093002501765911,0.3849701813766038
52,0.0576719242687232,0.7544977182768632,0.9842154239257579,0.22564061518810735,0.3918297128017114,0.47953699535025146,0.7806241204598057,0.9816911002659929,0.7467908458879973,0.42407591009167805
53,0.0849728459391075,0.7212993580913326,0.9684692120994012,0.24173812113754128,0.40773054512297335,0.6306673982549857,0.7466679903190879,0.9767824234170541,0.8603509736353108,0.5365583766099915
54,0.12300981635108822,0.6812019181122119,0.9471168300257309,0.26431694118524307,0.43020879843109694,0.7975392780943277,0.6979443550054453,0.9710751086549342,0.520961928287263,0.641533838694931
55,0.16962827461710858,0.6381018013095571,0.9209392438373136,0.2868417914031858,0.46076279742443677,0.8908640191642931,0.6354618257393959,0.9646724878694255,0.5242510900387436,0.7462986145242654
56,0.23065564930662197,0.5921096501102497,0.8879208599587148,0.3069314359169165,0.5082503576006593,0.9970058637075505,0.560167627117815,0.9577395651150641,0.052933895888624564,0.8238782255547649
57,0.3016377126804766,0.5469326442275323,0.8531545420510693,0.32038297561195805,0.5548078529590177,0.9999999973522776,0.47713710127290226,0.9504531709451817,0.33317384819232304,0.8672878890261292
58,0.3736299037339724,0.507018699376919,0.8201287318891068,0.3216640430153661,0.5953071245250793,0.9154967509072942,0.39778724712438485,0.942993102088633,0.42796799721386125,0.8477322125237101
59,0.442845769049965,0.4731917645039718,0.7901598870380775,0.3126419789729185,0.6336036108679546,0.8263652252584416,0.3272470179050324,0.9355369254846049,0.6729976667866371,0.8272494916337857
60,0.506792361754261,0.44250315499645837,0.7658322287704762,0.3084393533914551,0.6676347581798826,0.6939742355396485,0.2676719228186179,0.9280197697660381,0.5804411304697146,0.6168683925455479
61,0.5652696395332623,0.4154402512264437,0.7456897041945298,0.31200190142892603,0.6955706483062455,0.5847731977787937,0.21822026911217576,0.9203985681987253,0.4144730390737758,0.4567020817852803
62,0.616552407159982,0.3921280969503847,0.7284515457734753,0.31606724692784544,0.7219356563548036,0.5021909123258392,0.1760862834057487,0.912714791610827,0.5863077828513731,0.41082127319075745
63,0.6547886839495785,0.3727917894182725,0.7156273884436091,0.3166562634471301,0.7453350498759953,0.38010300403751335,0.14425839349344113,0.9049958803180563,0.13800365756143834,0.3209907529234557
64,0.6903730624670402,0.35394546050588827,0.704615056247342,0.31677631562176994,0.7642778401255637,0.35328691697945735,0.12261419598000373,0.8972467071439568,0.22192604727213655,0.3491357118805319
65,0.7212414033542845,0.33768856825438337,0.6953902962592575,0.3155227183609279,0.7777561125493236,0.3134356752135014,0.10566629762264902,0.889488137956968,0.3763117715134381,0.3566464460228159
66,0.742136430849551,0.3240674347942688,0.6891060311379575,0.3145641190657219,0.7892604973385204,0.24259038489209073,0.09407205696240985,0.8817296648395313,0.08965270383835235,0.2888779695367831
67,0.7583293466777264,0.311251368303472,0.6840156115700822,0.31260477469828285,0.79856503026322,0.23711277895882338,0.08880624713594658,0.873970241132718,0.06827782903477603,0.30151268830837735
68,0.7783554820416256,0.29821774814075136,0.6777385220559143,0.3086207859449667,0.8095318166356699,0.27551942474937197,0.08349340684913274,0.866248836163593,0.013172950586625412,0.42054239043569175
69,0.8000275388309144,0.2848052779607105,0.6714870955209656,0.3084232272996945,0.8181429954953839,0.30167193152061295,0.07502621136985607,0.8585925770975595,0.04601859670617026,0.5256673824077505
70,0.8167247296737425,0.2733090452482567,0.6665825523788885,0.3144964022568582,0.8205134348822605,0.28351047349898895,0.06801808179166523,0.8510364537225628,0.042580664725645034,0.4956879549246125
71,0.8257034614722152,0.2659676240803432,0.6629441435485498,0.3138699491928169,0.8208989377945641,0.23523063353046805,0.06536636859530054,0.8436630389449494,0.030636402489506782,0.34216321123264537
72,0.8273668484193568,0.26194815272855293,0.6611846784128451,0.3051993904025632,0.8194858513672847,0.21997863372376397,0.0665466409466234,0.8365128212948357,0.14550972525130332,0.29595673887436524
73,0.8234395653247655,0.25938603397467264,0.6611267408687957,0.2931780892900992,0.8177752723389814,0.1846969572734876,0.06970696605384438,0.8295634188237975,0.004774724048916394,0.22066774060355326
74,0.8129708943882005,0.2592788611571347,0.6626933106442148,0.27958037855589024,0.8140921651656069,0.18599769343776443,0.07410559376314241,0.8228267028808041,0.025501460048050612,0.17334053400448526
75,0.7977148846735475,0.2610537280815398,0.6656050717479415,0.2632111404652664,0.8098411784346822,0.18140951687532741,0.0807017773363137,0.816302343263956,0.05179786817649312,0.14606292984855798
76,0.7872318947032622,0.2630198050070873,0.6675588109632061,0.24365597800833635,0.8058986409413439,0.17557299228159073,0.08588971792981907,0.8099934868334553,0.02185403212385522,0.18784656688694729
77,0.7745489472543674,0.26552986236963716,0.6701282736725599,0.22224247072924558,0.8027737717838832,0.1743639880853337,0.0888095372176174,0.8038948678466119,0.03346308150520887,0.18848826284647824
78,0.7591506040715844,0.2675629047282026,0.6733314458956264,0.2020362115514057,0.8000538401275676,0.16837363346589568,0.09341344593972706,0.7979899378332662,0.10759983894841604,0.1569390598603419
79,0.7462342202399964,0.2677864657074384,0.6759123770425799,0.1838361722268651,0.7979177737814487,0.14386709754822147,0.09907164615803667,0.7922613787898763,0.031374343932918825,0.10329971478512619
80,0.7330194059294328,0.2679833417845578,0.6785383985767088,0.16684173722266935,0.7961175608451095,0.13824322557939148,0.1048984995258029,0.7867048516624624,0.11925485623380305,0.07540780355010114
81,0.7253937083562194,0.2664277772639945,0.6797145401212704,0.15011926550482838,0.7955489007331902,0.11502711876373901,0.10974039716864793,0.7813093123151661,0.0152436341810101,0.043289936675715714
82,0.7202906664120448,0.2638824419146751,0.6799890932640291,0.13371117903098237,0.796544333940188,0.11669862426653911,0.11241658916942726,0.7760899480401967,0.031477950378636724,0.08436656014628041
83,0.7192443614643135,0.25999987794510865,0.6792012178678267,0.11903443943597619,0.8001857618945285,0.11986416244435781,0.1131920016558547,0.7710364383774385,0.08581900537890345,0.1316610527662513
84,0.723653394957359,0.254724210164023,0.676804878430984,0.10793266021906259,0.8060158568470712,0.16201554791697043,0.11082252091242469,0.7661507553807908,0.018714101328292182,0.21580373489050567
85,0.7309196265138989,0.24892108551018147,0.673559153917588,0.10077534353623069,0.8133547294409346,0.18256399399395498,0.10563660795034065,0.7614379816637011,0.022312722031033447,0.2558933480713063
86,0.7383149358266924,0.24247446703359768,0.6702011891214528,0.09342763993424726,0.8223830157155305,0.18419980529633836,0.09999992281785684,0.7568935775036195,0.049036801315485455,0.26571931027893086
87,0.7457948725952179,0.23620546958361938,0.6666720124590729,0.08022578228539405,0.8316994928546642,0.21030613957454863,0.09455740356696637,0.7525279856782143,0.03630791624018974,0.3013694553713132
88,0.7490406476148391,0.2313548836692303,0.6641778779573422,0.06298973162197109,0.8391752396179614,0.2341469892723551,0.0899170586364481,0.748353542159803,0.1300360375395987,0.3609066666921875
89,0.753660324656438,0.22647498858196594,0.6614926968325344,0.047605328607445985,0.8466913825674041,0.20519937871498625,0.08620267019144535,0.7443690826213881,0.21905428975251018,0.2987171474906077
90,0.7522020029922591,0.22377029572650078,0.6601357237213374,0.03577555611252321,0.8535647414911034,0.26868732023126246,0.08327040977806703,0.7405689108237311,0.03178554493807031,0.39790385655350013
91,0.7505770492289889,0.2212690822601293,0.6587331588705017,0.027541424809160164,0.8621629952797564,0.2658360934399055,0.08104863845064501,0.7369518915639383,0.011289097079309382,0.4064950466089383
92,0.7452369399475318,0.2203104959752638,0.658402642259018,0.018943083467942566,0.87056622726216,0.2843909079724584,0.0795959689520854,0.7335114410636312,0.17423266324683795,0.46099295347900576
93,0.7452623629978558,0.21881667907556754,0.6569139701225968,0.012376752846082185,0.8771639510028878,0.2510107900950764,0.0776489472492543,0.7302618111395385,0.0076764245592295345,0.3998919142439225
94,0.7368797224504082,0.21962490782735838,0.6575488390138813,0.0046396661844106835,0.8818832615301037,0.2527068431240648,0.07669041247118911,0.7271993601589614,0.06597563387745735,0.3890308965428343
95,0.7242720687507515,0.22217790594236606,0.6594329529057938,0.0,0.8821995329879578,0.2391029234030345,0.07982638390271678,0.7243270501593386,0.22920725087530724,0.3301932771190346
96,0.709489538282616,0.22577065915255262,0.6621547014258994,0.003551044785405282,0.879592003609365,0.18998233939775883,0.08680264678597267,0.7216271970134843,0.132923081845642,0.19980013363476515
97,0.6950281554275012,0.22921646756169298,0.6650386688024374,0.012452096596421318,0.8759884288350491,0.1627340234999984,0.09652524193339711,0.7190785974280873,0.3152687597333099,0.14743169956260452
98,0.6869515028007429,0.23074766486605608,0.6666512690009005,0.02963484466952228,0.8747977415129209,0.10017984251859734,0.10538321104375543,0.7166236924315894,0.2716172968654193,0.07994624234636813
99,0.6859563021775339,0.23075854337877524,0.6670324222111856,0.0505935668115393,0.8767968055642056,0.07162069612871734,0.11077079634861375,0.7141797916408433,0.21514531584512123,0.029073232564932116
100,0.6873343322145036,0.22964649883963592,0.6672008453043525,0.06829721913433971,0.8812691713582844,0.12280807886311977,0.11360914238228531,0.7116850941667777,0.05841279710702443,0.11096465157281374
