Frame,Center of Mass distance,Symmetry,Grounding,Arm fold,Leg fold,Kinetic Energy,Potential energy,Bone length coherence,Torque,Center velocity
1,0.09041304089161235,0.5692875639825055,0.5175395699882102,0.9962083200768531,0.3742830046477401,0.0,0.2517671108978447,0.999979433512689,0.012961714800428237,0.00230056017045272
2,0.09633810215309836,0.5690266956774427,0.522155256047235,0.9965094969304025,0.37433915316093186,0.0,0.2517671108978447,0.997989909200284,0.012961714800428237,0.00230056017045272
3,0.10514858067908303,0.5687229310688736,0.5288617288339972,0.9971502601666613,0.37611846773439817,0.0026496413247602524,0.2497007496004818,0.995341074719443,0.01348509727034665,0.0007993738657875613
4,0.1148983151678716,0.5686743213080954,0.5365352360398646,0.9976607391984035,0.3781030286028641,0.005210373763273888,0.24677614090256436,0.9917997079744535,0.015093088803812053,0.0037921201211377053
5,0.12862233771125506,0.5679723075489663,0.548479002018536,0.9981123727354112,0.38182820319040506,0.015342346980026372,0.24363873459559637,0.9877659158549825,0.04914053806151135,0.020453450516197867
6,0.13959532140203545,0.5672728600489293,0.5584846496011302,0.9984769062276773,0.38661217634418354,0.007762059897522961,0.24045592009145697,0.9838124550981926,0.0129142632899291,0.00722422675167395
7,0.1531683593603941,0.5656572727135921,0.5704454237228513,0.998926565167681,0.3937192228956928,0.009897223127526658,0.23650630994413552,0.9798929756189088,0.031979517029338024,0.006390334837396828
8,0.16593811004459433,0.5644102918473027,0.5806446401715812,0.9995489920111489,0.39681975055103724,0.006527545809098587,0.23227031599421802,0.9765340421384969,0.015385775835031213,0.005149401681710749
9,0.17953716963473806,0.5628654302906546,0.5908993355631158,0.9998560182519788,0.39973765336250106,0.00817882227345401,0.22850192098167557,0.9731430422284341,0.03223808293865442,0.007148683598035747
10,0.19088324059990486,0.561612229103739,0.5994430927550191,0.9998832698538458,0.40148888360229046,0.005410451754646745,0.2255956923596177,0.9698124950657697,0.011158614758870292,0.008518960302845244
11,0.20540589948326,0.560458238234093,0.6111649429624731,0.9999999291389032,0.4067874358343518,0.00925302334656704,0.22263619341874866,0.9662709475457669,0.01563856206064578,0.004726449391737948
12,0.22345806715337174,0.5588005154987127,0.626668270307949,0.9992530613033713,0.41583160548635906,0.019337769984886195,0.21894556466717227,0.9622169257428818,0.013070076532472925,0.019833431841759414
13,0.24377360912359433,0.5565056501160177,0.6444482590873468,0.9978548727488548,0.42431234222586356,0.02153208093582052,0.2151420326654905,0.9577700920302429,0.021776154132332765,0.022492513885992813
14,0.2642932788493082,0.5540261284119374,0.6606359617126756,0.9970384295280722,0.42910684266763904,0.021604522193058858,0.21144005439842956,0.9535711692258427,0.01745986075600228,0.028843482488299717
15,0.2945378405984162,0.5527683976159594,0.6807294629026027,0.9958228588131979,0.43370945936503863,0.02210606039909834,0.20523994110117197,0.9497893626758092,0.010465719225774139,0.0
16,0.31983186033308164,0.5530738625969635,0.6997494263014723,0.9929350181613077,0.44080954115391835,0.029280359871628036,0.19990685819071108,0.945956179946841,0.13107352202006664,0.04201007541758442
17,0.33573463280529936,0.5565592858965837,0.7129396461922063,0.994009457945808,0.44774538329789126,0.061462747689443625,0.20064557577568184,0.9402586102749326,0.22261387244444183,0.05828501052090616
18,0.31919357668509607,0.5697314084144838,0.700744402669872,0.9933038432450768,0.43611674714338333,0.11411632869524338,0.2106652427145334,0.9327396004124894,0.33115229773726435,0.10230223408713428
19,0.3006742687392439,0.5917487871413697,0.6826299204104996,0.9929325157274299,0.4084389730884563,0.18858488841884102,0.23008303985182857,0.923287214740292,0.4598660133159981,0.1828266351897359
20,0.2899114068629866,0.6219349134512433,0.6672096090013372,0.9908110795806081,0.3694065975919196,0.27926109378913355,0.25464364547313056,0.9111610496818592,0.263119862130535,0.2757436238333079
21,0.2777717901286868,0.6591741505999735,0.6476166331640116,0.980970934262413,0.32005096831474716,0.33949100178621566,0.2864612516152158,0.8959495900771148,0.2547636172241963,0.33397572759569816
22,0.2612045294236968,0.703026762448192,0.6213325728598242,0.9582716042189926,0.2546109527487477,0.40042649471855857,0.3298182691238935,0.8772837698623048,0.21177814673823145,0.3896208859538765
23,0.2634600105648078,0.7484513038969299,0.6054619506156347,0.9245305431391173,0.1871276463664921,0.4459170838519747,0.3822302012655938,0.8540314515066387,0.014924237180689049,0.44058272898607337
24,0.2647771109881702,0.7917495792879752,0.5876179788219081,0.8819491797671541,0.12171527128233477,0.45313825341984,0.44175873980100494,0.8255196050445655,0.0774364545939323,0.45667400050621626
25,0.25279047889701006,0.8321292232926264,0.5704263908008684,0.8283881071578437,0.09109167350688784,0.4708477554684295,0.5115232240785343,0.790027492325417,0.43894369763002056,0.4685564854784043
26,0.23512701671334676,0.866169826611462,0.5429914461503277,0.7629496588824721,0.0514108145476912,0.4070875871824054,0.585060577181076,0.7489015402990331,0.47620789382444195,0.427926080283564
27,0.22801742938332728,0.893889809745415,0.5225067576702592,0.680248357055016,0.022253370615878898,0.33828525993727543,0.6482742811119533,0.7036952547390556,0.4810429387509199,0.3501985007995204
28,0.22911752892910547,0.9180893218480962,0.5102612996303506,0.5813316369161079,0.007282150345311858,0.2829601777407664,0.6954717405353558,0.656965394016894,0.403929269968828,0.29537242789653373
29,0.2624724332570582,0.9364833100722953,0.5233409665912624,0.47174358652397175,0.001921982518064704,0.23461628754501093,0.723495154699335,0.6104429357603425,0.05416963665209032,0.19866756784931766
30,0.326061807116337,0.9493980564238221,0.561256571962425,0.3575500184240621,0.0,0.22738583265315274,0.7321128566398518,0.5658296895432545,0.021214243450800595,0.15269350330030437
31,0.38511666994018856,0.9622834981289257,0.5976738409220768,0.2506338505822049,0.0022917431149374495,0.22552126798527058,0.7315740357780925,0.5245502493458513,0.15409859913926952,0.1445933333587281
32,0.4296809682896287,0.9737181184324186,0.6263301322258918,0.17733909968328984,0.009813323576751005,0.19868665118999826,0.7292287204543256,0.4869539522071468,0.03393622292855233,0.11989319428782039
33,0.4562677709219299,0.9846532567301565,0.6444713415671999,0.195695906251708,0.024079243368404,0.18265547419853653,0.7290900104985264,0.45299674968010273,0.1400562291025708,0.10646462866209791
34,0.4647833308059429,0.9940881866601615,0.6495579912063842,0.21491740937063616,0.03697742368879658,0.14709713884346803,0.733300514225894,0.42181105616482095,0.30027536358779283,0.109054257375168
35,0.4764182070291,0.999999992055239,0.6578709235997589,0.23140988512754554,0.04737023319061721,0.09527869033462899,0.737893112425075,0.3933528991091333,0.11807259219573524,0.06225597128187056
36,0.5109802949579006,0.9996983696411669,0.6869204269726487,0.24422908333656548,0.06938276988134894,0.06323403799616893,0.7353734647957401,0.3671554990284998,0.14061157347191688,0.032173045817099205
37,0.5686991564134342,0.9920243813089767,0.732480787688808,0.2507715301566504,0.08256584206860575,0.08584711223999328,0.7204019010029247,0.3430168289809061,0.40756761619266435,0.09061702510775352
38,0.6378234771644238,0.9795011467648055,0.7863058910597026,0.2520401711031788,0.09560779579708112,0.16591365350714657,0.6956444270812133,0.32077921764722883,0.399425931504237,0.1951267779624868
39,0.721427780581183,0.9605711037877308,0.8486500493194997,0.2497372438576537,0.11217642168792467,0.25220883975763364,0.6604508645893261,0.30035968182127804,0.37214775898389924,0.26798998852743394
40,0.8046658612457106,0.9357375395425773,0.905989763964853,0.2412001318836699,0.11456655432838359,0.32951873863045356,0.6172680581478002,0.2812903863881856,0.2971098152267372,0.33873142248749577
41,0.8701405779387138,0.9055760503185176,0.9516420496446389,0.23005546787911402,0.1213822872316921,0.4024010941266867,0.5723630869556554,0.26341093323586584,0.30954626540057684,0.4188340588929784
42,0.8960653551292811,0.869177664089266,0.970621112509031,0.23356508555848798,0.1262245228035696,0.47204861886263644,0.5282316664603515,0.24670964902476458,0.2999380126518738,0.45330958487942974
43,0.8694430336157071,0.8251690285008711,0.9600035767324403,0.3447052508462995,0.14753542893880528,0.5506529361410342,0.49059956346883615,0.23120671561239536,0.24180936492892266,0.5184230683335246
44,0.7817083784022189,0.7733959159707594,0.9176820523998634,0.48186968818834064,0.2023035956581811,0.6204052522778843,0.46007439213818796,0.2175818954275038,0.23798886206935585,0.5572261754015971
45,0.6676003574001724,0.7108530560575496,0.8658663396435402,0.639619406368019,0.2837539014581623,0.7022932698884572,0.42670745330473675,0.20676179052971033,0.5405091648931797,0.6586622735160692
46,0.5938325582056856,0.6341219826558108,0.8476259161344437,0.7894105262742971,0.4166366248764543,0.7879024657224543,0.3718353297689002,0.20191567533633328,0.8073018671631573,0.7707236844164049
47,0.6219259901653114,0.5419104509996292,0.8884539635249527,0.8889131360541982,0.5395806931429453,0.9099770347032607,0.2744944541886714,0.20762327469688208,0.4212857531669117,0.8679984450266882
48,0.7265221893069616,0.4383538099197953,0.9782828759970792,0.9363316995906695,0.6874701969666396,0.9999999984140194,0.13757947409307802,0.22102188417472773,0.9999999998101615,0.9999999930407886
49,0.8462255563757679,0.35157662729721445,0.9368542791746056,0.8942451297204986,0.8486269742113504,0.7961378421330174,0.02168959839131642,0.23325925090566807,0.623065795508837,0.7437180423154754
50,0.833012177503019,0.2919326004383415,0.95502464533257,0.7837678922033642,0.9315638674697726,0.6478840159818144,0.0,0.2378283005086686,0.5594984169635878,0.6152967489430863
51,0.7147090213223279,0.25912173775593456,0.9455478700076608,0.6363900698830985,0.9421558302529429,0.5416250087189985,0.073042853048681,0.2324344169094302,0.015215710871392504,0.4915449707932712
52,0.535342926802771,0.24090554763213265,0.7763334498516349,0.43387844916001167,0.9083786836633685,0.5381494165665173,0.20956240157153885,0.2198726054835535,0.1083072027408323,0.30764113838452406
53,0.3789947048464559,0.22490279483081146,0.6072000208529874,0.20336444638582665,0.8598437241397546,0.5313877513408649,0.3826752782857725,0.20265163381506318,0.008245668674260251,0.23730592165738143
54,0.2993234527345831,0.19690708932289844,0.48442390555910936,0.10012229798322114,0.801919370104503,0.5396742656763794,0.5467950728329889,0.18295712543578718,0.05504082393828215,0.32217465826484104
55,0.24806766097835323,0.15050039421421377,0.3796638682683899,0.11944162424098613,0.745188555357926,0.5419672287635621,0.6856730528694486,0.1627263008767003,0.1203242335276587,0.49834988179234074
56,0.18747943395406774,0.10060116281872221,0.27436159517901676,0.21970223624291407,0.7130735910827763,0.4823250507293414,0.7995944637610695,0.14347935820860186,0.3963306978841334,0.5103057634785008
57,0.1220137897945587,0.06066738801863106,0.17670124274413407,0.2734195328373902,0.6984904578701311,0.375166773012676,0.87869324102354,0.12536378046137756,0.4743909126957802,0.45294265256305993
58,0.06137903175252554,0.036731593855745384,0.09630941992980133,0.2850612565437825,0.6929777668406675,0.2508958378110321,0.9294086364626343,0.10778995117405495,0.21027884765911764,0.3070810065963533
59,0.022560316139504148,0.020447919964586492,0.03876965712572344,0.277332351143284,0.6859082449381169,0.18965116753120093,0.963201094435728,0.09047562012697602,0.2012821485138565,0.2178821815446732
60,0.0,0.010798791922508742,0.0005005253526015142,0.2671230760767748,0.6772721253770316,0.12568817789187342,0.9868867128290556,0.07371128678566782,0.17428879032955782,0.12235366787439304
61,0.007123285466183681,0.0036064585232561262,0.0,0.26180081965185853,0.6781639433995018,0.07287561534100807,0.9999999261727383,0.05792313482270918,0.027033781012256185,0.0851939641346702
62,0.03542101151177106,0.0,0.029016296998365058,0.26455883887784937,0.6902281459439472,0.06808574317834934,0.9995074302722753,0.043613726293567884,0.13769710940370503,0.09081201804040054
63,0.08444232496320324,0.0004049545584396019,0.08586277549527875,0.2708982586763043,0.7139836237074687,0.11788200573938168,0.9871588116122787,0.031138398920058305,0.12154928234372626,0.14358083029235244
64,0.1548994527796689,0.00428824581090514,0.16697987412394008,0.27692330060541814,0.7443546071077477,0.1618638948132576,0.9623719485763649,0.020646481883961662,0.08554026004109265,0.17139425710596695
65,0.24664825907994706,0.011139627737727534,0.26736800873934646,0.27688800674040237,0.7773496093060673,0.1981571608718623,0.926073275071322,0.01222832732518491,0.0861926431011284,0.20304218216200642
66,0.34950669095247217,0.02399767294476006,0.37736938877984355,0.26039042374323945,0.805521847159327,0.23673300367616673,0.8816267052132669,0.006134420081449101,0.016763621031878447,0.2612962337820237
67,0.461267474202335,0.041783917062805986,0.49358926988389706,0.21878322173437814,0.8364732023801988,0.2535888789830493,0.8298311663319659,0.0022357466910488994,0.0,0.27145014647640997
68,0.575902342243709,0.06238777288737768,0.6080443536686622,0.15193568502447974,0.868708190605768,0.2539153543333312,0.7721058869523075,0.0002300114052668183,0.044019136682960106,0.25899402568214064
69,0.6738899232699315,0.08405760130726404,0.7063538502299379,0.06450796687810949,0.8947127081575607,0.24227382810361742,0.7155888247591563,0.0,0.07050625735576106,0.24145926262667466
70,0.7631678490882684,0.10446191880350969,0.7959284504678937,0.0,0.9293126394937374,0.22655711203321785,0.6643921151018458,0.0011407558860215751,0.14661479914752557,0.21614777840188001
71,0.8469590583177004,0.12088573188367938,0.8732162871756796,0.027174195494846266,0.9577959883452528,0.18888154339988553,0.6178440254046745,0.003509769132510665,0.10691653751923774,0.16881854464330606
72,0.9228951757358991,0.13305020169314583,0.9384684329411673,0.12991762304427804,0.976883540748651,0.1582333159185348,0.5766084473893116,0.006912508117624309,0.0990489644106343,0.13084408419216798
73,0.9999999743324223,0.13942460696139153,0.9999998449366667,0.2123556964885105,0.9999997060621398,0.12849845419134415,0.540904447678166,0.011047535120323982,0.0990489644106343,0.11315743733399797
