Frame,Center of Mass distance,Symmetry,Grounding,Arm fold,Leg fold,Kinetic Energy,Potential energy,Bone length coherence,Torque,Center velocity
1,0.056332355815607325,0.22693588762305034,0.9478509360451349,0.003522150032459453,0.05558422833101565,0.029121220252347858,0.8657766621458785,0.9924969477213788,0.06622019571772429,0.04971273158848784
2,0.05467258701010537,0.22631476105371495,0.9461497489339631,0.001676343251075849,0.05508430309517958,0.029121220252347858,0.8657766621458785,0.9953555095888529,0.06622019571772429,0.04971273158848784
3,0.05272230361622316,0.2262049041218786,0.9433114613529421,0.0005352875880364983,0.05551864931575083,0.012723306006516473,0.864786158061205,0.9974797801391072,0.0,0.02611058417533065
4,0.05606310900802085,0.22660608208317956,0.9489778539420818,0.0,0.05624293041667935,0.01875746255809907,0.8624350368290628,0.9990258973840666,0.030871176452363164,0.0303393079670297
5,0.05580620021633513,0.2262683641581067,0.9492525044358419,0.00030285792900174816,0.06024288613972953,0.00825690829354836,0.8590409029761826,0.9999911748259377,0.05738967418015003,0.017609246146016194
6,0.057232632878935846,0.22537914523147695,0.9527555884888083,0.0007643414857847876,0.06856858741084508,0.031469051399664466,0.8565867033737566,0.9999952185939224,0.03600032786872594,0.04163623822241467
7,0.059672354755717076,0.22445922515960523,0.9585373370750737,0.002326496016494681,0.07857427200767822,0.05197814655837408,0.8515384134624125,0.9989904186072174,0.10014854849230333,0.06511230587740476
8,0.06371902419482826,0.2232289919681297,0.96797741907924,0.004322461927640335,0.09807064539185036,0.08526190366513059,0.8436283895228875,0.9971557986889461,0.13454383197644462,0.1162113443640158
9,0.06935274098980736,0.22229230183194812,0.9798377452262356,0.009027597417365509,0.12095768967122941,0.12870633969446632,0.832649172886357,0.9944687733598451,0.11695734244131735,0.1764846732409526
10,0.08153192429899449,0.22138026064454483,0.9999999370091478,0.014166829254010698,0.1375163871093042,0.16837016392535234,0.8171449046124196,0.9907610618125382,0.19592943902193238,0.21850207419194234
11,0.09803347284986016,0.22022229638990143,0.9756580082808203,0.019895669839714823,0.14462092126049172,0.22835896782737308,0.7969192557852455,0.9859397290373773,0.07576012013180144,0.2825929434256973
12,0.11090206255803624,0.21788045232861789,0.9576132337123717,0.023526952047920963,0.14906552293983533,0.2568082642846102,0.7770954276282508,0.9800009629019041,0.009236792499755972,0.2882353963411622
13,0.12104498372379315,0.21538526930551394,0.9417886784985082,0.025111471866810793,0.1617988771667195,0.2641113184786276,0.7603974723820388,0.9727897834227123,0.0021106480308172595,0.26268557813185206
14,0.1272194707113024,0.21302472150042798,0.9316990041381005,0.025732608212326934,0.17799913933486036,0.265836613365247,0.7469338687016739,0.9645046191774351,0.014986279189534388,0.2524144126796501
15,0.13085485043087036,0.20833511392576629,0.9239486712865042,0.029172234043963127,0.20892000552716003,0.2576382618568427,0.7362894425482259,0.955092528208892,0.06366799571359527,0.2604830673562095
16,0.13206466530418728,0.2017327449614642,0.918204444783947,0.03513492405355074,0.25593768775921444,0.2424073300988413,0.7267646433273708,0.9447191007306833,0.11420529044630365,0.23837883029222687
17,0.13969555268333592,0.1939758947334039,0.902182515040541,0.03786347310903759,0.31379796633987134,0.22241049929466686,0.7139546283482148,0.9339804366357326,0.07240664029357682,0.2045305894281639
18,0.1547975282186016,0.18283944972565302,0.8748649037406622,0.04000548650635311,0.37853578004855726,0.217659386139707,0.6924065057877309,0.9229747617156998,0.14702416251151545,0.17866442091530793
19,0.17069491936590345,0.16986514079636664,0.8476825951218138,0.0424284445118989,0.4339115632623269,0.19314950283381313,0.6671540127541172,0.9116254241411966,0.04406860678812738,0.09103202498035275
20,0.18660131733279894,0.15711955741570596,0.8214667940048761,0.04409914039821428,0.4754410282952088,0.1859274600746253,0.6428326399181905,0.8999987816107878,0.010232708800313113,0.06586201346074781
21,0.1999041796580173,0.14247488029372468,0.7994061800685486,0.04975156897041429,0.5068967925611153,0.20363846419360138,0.6189077093474816,0.8878353292610724,0.10827470239375396,0.07612200954499854
22,0.2140253646797687,0.12359960765188545,0.7761925641101682,0.06093724181889487,0.5340942858444724,0.2519408614725204,0.5947446421600971,0.8748069755318103,0.2609789032319414,0.13805054835227618
23,0.2284073429556912,0.10075429091303267,0.7521449535849055,0.07856226110161887,0.5554142476216419,0.30823320626760525,0.5692259791042842,0.8607652242579015,0.5014115963516013,0.22545967835154748
24,0.2375375339206133,0.07271738639838682,0.7345289629767504,0.10902454533528422,0.5713642258528216,0.4189349514806073,0.543898702586958,0.8451998743992667,0.5750260144638163,0.30286668694070873
25,0.25868841679734467,0.0375976429895727,0.6995292281149906,0.14724151955903764,0.5900268205814138,0.5122823629496484,0.5102604570684763,0.828161836402129,0.7904787305555753,0.38917224574335163
26,0.2912619391819154,0.0,0.6495933326532622,0.19538045201300974,0.6118213108784872,0.649920471025506,0.4598956406341334,0.8095098836134105,0.8445680841146912,0.5003308605711807
27,0.33410893721319973,0.018876126492723112,0.5865800843517718,0.25480069362947755,0.6437180178125933,0.7978007318044597,0.39525303084034225,0.7891223754199569,0.6266953162494725,0.6542802543209653
28,0.38267848382462405,0.11886480334214299,0.520254710111057,0.3260568967557149,0.7045221055442474,0.9086139054375111,0.32501457126156413,0.7668254836711343,0.27297888059953296,0.6897616962395511
29,0.4389970680011141,0.24951416654132896,0.4486878215970941,0.4038434172915948,0.7724950777647537,0.9556257959303169,0.25945639434879064,0.742572941867357,0.15751741141678802,0.7302479719001154
30,0.4933133816688651,0.41270285462922957,0.3863427174627502,0.486809752947326,0.8253345001177603,0.9999999984118,0.20418889654252975,0.7166265488052107,0.10166475613512847,0.8346558830257553
31,0.5510106013674734,0.559091733833261,0.32793296852416765,0.5751259881339743,0.8697508242096791,0.9813420084024544,0.16096045496349934,0.6893314130225062,0.3084352352777606,0.8482652716452134
32,0.6066011296265528,0.6823056917773593,0.2772078539188661,0.6605037492813831,0.9075756229511479,0.9320521554860867,0.12764620851764036,0.6610140034279088,0.33423758949907206,0.8009645679770289
33,0.6549396868275563,0.7807848647545087,0.23738395078555127,0.7379107717700976,0.9448455892489145,0.894260620129795,0.10422071354146631,0.6319741213086413,0.18387843679611748,0.7399298249342077
34,0.7024870340951717,0.8555987398916457,0.20155161622990952,0.807480315001589,0.9507095019211951,0.8734678415265006,0.08702423564405888,0.6026091284250116,0.24465659998008216,0.7371509666419098
35,0.7565440204998157,0.9104060060673508,0.16114605105546662,0.8690437708893058,0.9356036641738559,0.8016652116504295,0.07011205852693234,0.5732651755379411,0.8324813633932091,0.7174435989355086
36,0.8064943881162254,0.948239719892449,0.12472689342859641,0.9162720545097917,0.924931192666848,0.6312665260939829,0.05333246698863314,0.5443129966345074,0.9999999996981118,0.6045776373158542
37,0.8479797026184072,0.9710243041735512,0.0963129119504775,0.9475945345944242,0.9182790881123973,0.44821531113823876,0.03939912885230582,0.5161196648433649,0.836314745746894,0.48481963212896556
38,0.8796898243458475,0.9866957004572523,0.07469419378064673,0.964794934192435,0.9185440156174182,0.29783898255537056,0.02864817844735132,0.48892252899392863,0.5790862925177729,0.36582182453437884
39,0.9079056816224589,0.9956303209980036,0.05631241789532394,0.9720017178217232,0.9184880543534818,0.19594906426886635,0.019643447180380254,0.4628568116904549,0.4416530214517711,0.28049952268298045
40,0.9278142797132417,0.9985399905596859,0.043742938314973265,0.9735894111483382,0.9203651681216672,0.1186866688431155,0.013555752633145238,0.4379258823986905,0.1809702027301223,0.17911390152033205
41,0.9428063828765888,0.9999999930388954,0.03478255313561205,0.9721158798252173,0.9210149258015161,0.08740056367392586,0.010544324226398826,0.41408340008448624,0.08391483275593907,0.13859999210708182
42,0.9541576533404054,0.9970229056754611,0.028541612357646153,0.9704956337371752,0.9191402217603083,0.07301450804979781,0.009473141523446865,0.3912717139653832,0.11657767394281028,0.08821282616514516
43,0.9609715516146282,0.9936228856838588,0.024804468615228517,0.9709794710497592,0.9191616000479851,0.049307611039919874,0.009892446483189316,0.3693959741440528,0.0411338358923114,0.04958685403359555
44,0.9674194208683367,0.99124219157916,0.020865068287766485,0.9724468295400912,0.9215937839161323,0.040721632184770595,0.010329583993617641,0.3484280519970192,0.06068556242170814,0.04181076228663041
45,0.970066207998402,0.9877650411763982,0.019036389784366416,0.9738258189276825,0.9253195622566679,0.03217979802792062,0.011810301332877733,0.32831230011562235,0.043686381661261285,0.04995910910567701
46,0.9723428523729547,0.9848542806855229,0.017577631600647042,0.9751174310309512,0.9290754812833797,0.027024629326887272,0.014459453664145451,0.3090205441218586,0.15181867345842,0.03880499441108518
47,0.9734339543816866,0.984280370954743,0.017019682400525087,0.9754058129690166,0.9303828410124974,0.0,0.01590637271205643,0.29052458383332747,0.06649317315678607,0.004871291151394065
48,0.9730916519488259,0.9842858066163873,0.016889959211496663,0.9744010648812612,0.9322127197614976,0.01987214189303919,0.016326877644320528,0.2727698051008022,0.05632253100628511,0.011027947050650008
49,0.9742572045602471,0.9852009493855265,0.015791915185656293,0.9726244336572201,0.9356057491502993,0.014907373030914732,0.015826446696285787,0.2557739118152949,0.016963909702179796,0.010552312155997017
50,0.9767521806760712,0.9846214877633012,0.013798083719019938,0.9720979804896083,0.938146962791695,0.012944372466283906,0.014708435194512808,0.23945073055512414,0.023498257827407613,0.02561510261681644
51,0.9789227976998562,0.9878679368579978,0.01219900131146943,0.9726226816146551,0.9399553551675509,0.02716825544476097,0.012694468427507032,0.2237875904087209,0.06964483960632976,0.05124286111490119
52,0.982905039516259,0.9885387665734202,0.009624623702106764,0.9740746778341429,0.9405094717808019,0.013368972536365365,0.010031876296751485,0.20872830639559184,0.019909172811531387,0.029770410059481292
53,0.98430700180325,0.9920879908958118,0.008722140870909105,0.9746262649767451,0.9415590222273175,0.027510425013800396,0.007896901344368289,0.19424905620276198,0.06291525368460985,0.058963158296495705
54,0.9868024760207508,0.9951179389596119,0.007205634944976738,0.9748780278918276,0.9414868843764086,0.018326645307582812,0.005612847330358892,0.18032288151555034,0.013051341015027383,0.04613621959924669
55,0.988939587923465,0.9953948360457349,0.0057209321234525205,0.9758768721982884,0.9414450865212769,0.015044151084194999,0.003420889229658793,0.16693807346306067,0.07191605808221846,0.015535677488771698
56,0.9912318112168623,0.9961098860753823,0.004546449057195137,0.9762474661158941,0.9401881891970534,0.005776388282369344,0.001766063679585887,0.15404753722298667,0.022162879309587727,0.020642547955209745
57,0.9913426799181624,0.9977755869127918,0.004406682782564547,0.9777036800891076,0.940506192986881,0.00631984493979899,0.0012051887281410276,0.14159699646864363,0.015042219271310475,0.012129567637883818
58,0.9936057493030249,0.9974843086134307,0.0028553050316248644,0.9790268871949765,0.940546990901335,0.003964315147029676,0.0006755117713714946,0.1295851539863058,0.008715556716305953,0.008532950985758075
59,0.9957855422647454,0.9968956138390768,0.001454015615518562,0.9807116667909556,0.9414561827207134,0.009721299584467227,0.0,0.11796071673144799,0.014475953607260564,0.018427417651138724
60,0.9963368102283957,0.9954443811229654,0.001330429867691273,0.9826269019449417,0.941522029322019,0.02420292239146075,0.000308019749060957,0.10671226526786343,0.027443862942558083,0.0
61,0.9978953874065583,0.9922290620123314,0.00070803753495534,0.9847215774190773,0.9403247283691425,0.03189167848493151,0.001954601622760201,0.09575641135580176,0.019667502248306448,0.030540164316403606
62,0.999999995651226,0.9899316120868101,0.0,0.9895388641410546,0.9385587361822644,0.03974307451110601,0.004349217070729986,0.085048301365246,0.024233367451354237,0.020802761900727187
63,0.9966861908608764,0.9872539549052618,0.0025188616639511643,0.9961013355426994,0.9379716506749803,0.04654269728259046,0.007189791531734127,0.07459872434872009,0.009193223419558375,0.016542552006319253
64,0.9870373090694237,0.9816429232610391,0.008550571491871066,0.9999999202092047,0.9374136470821846,0.059337716656855825,0.01268993200346813,0.06442641547827191,0.23120076750407462,0.09915628073588825
65,0.9733245150448662,0.9717820986449046,0.016804035034677332,0.9968612995601354,0.9366964512435481,0.10973355392437666,0.020938216898619175,0.05458966621595007,0.4992047196232707,0.19379816134315428
66,0.9504515799560251,0.958114850820408,0.031290070117448276,0.9857499404608772,0.9371080283729404,0.20205496024427524,0.03234543811924111,0.04518198703542566,0.6363379831320342,0.2750650251541494
67,0.9193424286446507,0.9406986603209971,0.05047738516044715,0.968106714736132,0.9448848060034839,0.3220911834474239,0.045272222775903856,0.036339672198152796,0.638362133241289,0.3910336360572407
68,0.8795771512731818,0.9184351921787334,0.07582780706799529,0.9408867503296084,0.9594757000850315,0.443313664285814,0.05736812036692732,0.028218850856397838,0.5957756451161361,0.4622656451757093
69,0.8298959190159211,0.8858549410900716,0.10827645869949618,0.8976884127272264,0.9744427894466795,0.5688354027056384,0.06984865072288454,0.020935519529195163,0.5312948605765904,0.6058760019079951
70,0.7723331419690981,0.8398002805062629,0.14845661239708977,0.8379972651051425,0.9917350830309081,0.6784070737807649,0.08533157313649682,0.014613252901504,0.4868202466448147,0.6818545926590232
71,0.7076852198806354,0.7759273000577939,0.19655113601111493,0.7649782126021062,0.9999998815901611,0.7809783616014186,0.10683675199879404,0.009353284874179716,0.2472178962069034,0.7727299075925199
72,0.646008412783111,0.6939983490289822,0.24539470642630384,0.6804329118978218,0.9819854641717841,0.8580454573799617,0.13244206876754103,0.005244633770189065,0.5299216373055065,0.8098001417380676
73,0.580556513158892,0.5843612782603962,0.30143038151836726,0.5892159902525791,0.9585231213769038,0.9784980290579711,0.1625091890927144,0.0023018392665123486,0.0578177183315352,0.9999999927148044
74,0.5157572627340022,0.4591409815827999,0.3619272789273073,0.49825273261403885,0.9354980128750632,0.9874695089116956,0.1981936281640775,0.0005623802645625584,0.6353124538805078,0.9750868024576588
75,0.46699913542793214,0.3431679536004986,0.4115162694738596,0.40974989285160957,0.9132235959904462,0.8823136818363176,0.23184173647671333,0.0,0.6504789208958796,0.8674836138511725
76,0.4118760762734598,0.236307701217711,0.47251699501050975,0.3327577485623485,0.8868015502590566,0.99169786683415,0.26545406767772967,0.0007331988655861195,0.5674586266872629,0.9485585437053435
77,0.36238082627663903,0.13410794131460532,0.533060899639559,0.2595359600724532,0.8605383280278684,0.8947800841037526,0.30927609484901825,0.00268267415296855,0.5708607069675791,0.7723827877490873
78,0.3214937015987685,0.05849903018498102,0.5890660270129158,0.19820478955792542,0.8239121536770448,0.805450689663212,0.3612953356946427,0.005735807386879675,0.5971068119755364,0.6416051478960064
79,0.2903118775347394,0.0469312818288831,0.6366722055895346,0.14982983649499876,0.7827197948052674,0.7168808831459104,0.41640609170818865,0.00982047065492695,0.5593865462118233,0.4970327298362381
80,0.2690865263960314,0.07907838612266054,0.6722845686730281,0.10875775015203652,0.7402881871794259,0.6351719208601214,0.4688951596999095,0.014792435011944135,0.5615245829997889,0.38159604622572
81,0.25019032795343127,0.11363390758152542,0.7055767000078136,0.07491412606250075,0.6926344695012313,0.5387052293584199,0.5173104089934739,0.020503362094002366,0.5119897901196924,0.2757774542430717
82,0.23575174148296058,0.1435543179364474,0.7332594890591723,0.04870597433674782,0.6399201709229948,0.45760574365963863,0.5630574001966355,0.026824394107541515,0.42118923862884033,0.2088973558272644
83,0.22399649163263968,0.16851146474452758,0.7570603465506813,0.029075235773768256,0.5880924931083817,0.38809375180455025,0.6029083422696031,0.033647684834454225,0.38049322816553066,0.16428494117591716
84,0.20967460493402013,0.19034901187524958,0.7840120826625794,0.016025059191280996,0.5367215967747626,0.31225999799618503,0.6381371345897494,0.04088628795501527,0.32974499570592547,0.11415527816257524
85,0.19490098192447008,0.21009262298619516,0.8109742803219798,0.009426414131807037,0.4837150374752796,0.23933412230535675,0.6697246647059536,0.0484227979572067,0.09822081041211145,0.07504805834459345
86,0.17883522297440982,0.22781339104393264,0.8395018044623231,0.007333984205169106,0.4318138456860163,0.2002114792521523,0.6980990895307574,0.05616884514893199,0.02970963742478463,0.06399659973480278
87,0.1615617010640111,0.24352170412999738,0.869580008917106,0.008751362740726756,0.3787713177631936,0.18322934972276658,0.7254815820690136,0.06405007917484733,0.03978477635790152,0.07027890513714989
88,0.14326441555786393,0.25695868556336643,0.901531946273198,0.013500488132618936,0.32556290893640766,0.1923645304233403,0.7535537051685631,0.07199985618928718,0.007073167024424447,0.12438557986568217
89,0.12508660509043676,0.27004709027003476,0.935199158957766,0.019724314926555665,0.26417447853236176,0.19575106886499416,0.7823035150022722,0.08003939703715517,0.10145340957422164,0.13105491047662643
90,0.10791244880836823,0.2795142168037793,0.9677211809090833,0.02692879244104343,0.20018896136238393,0.22069505154265062,0.8105858090950804,0.0881206210496186,0.0950130966853856,0.20201698915077337
91,0.09199404664270532,0.2848743902726729,0.9979141834117913,0.033723292861633836,0.15121390253768627,0.24486175872717109,0.8372059038185659,0.09625799453806302,0.014958040072186674,0.24447003334458275
92,0.07793745990898127,0.2863030234367062,0.9777218623720726,0.03444042166197306,0.13725261332131483,0.24028614468501336,0.8599200562479599,0.10457236085823547,0.06935466324735398,0.22297819581722528
93,0.0633045489039023,0.2875525322648657,0.9506635579629503,0.031165873940680693,0.11829211552449113,0.22688256846133042,0.8835006880868239,0.1130405178663949,0.03872650889215335,0.23433132879874233
94,0.048057065107178346,0.2873229249304678,0.9230470253791069,0.030866843305479806,0.09308591686575012,0.2224217478998188,0.9087677840304625,0.12156209923518212,0.10613496712102467,0.27390652763587586
95,0.03405361318336607,0.2881363084515082,0.8979492149719144,0.028276921126962715,0.07692966381276753,0.19949028432401203,0.9312263076493174,0.13017866079794196,0.1237010549070354,0.23253611311841071
96,0.022532308880552878,0.2887770284851682,0.876548515452031,0.02528648139246915,0.06245465395424352,0.17279571663061574,0.9498420504531995,0.13886514666043462,0.14782658195035156,0.19859997908040528
97,0.012010606558260176,0.28947687158387575,0.8562243789137827,0.02282947990876484,0.0443722101874702,0.14188445793933607,0.9656718764353799,0.14756888480786334,0.04974585241103332,0.15991183052786317
98,0.003918029388574189,0.2896015498467813,0.8407711388926009,0.021127814369324437,0.03191726545334409,0.12966593655482084,0.9803707875579125,0.1562301449100051,0.06633482191185133,0.1563531097086732
99,0.0009769935684016608,0.289301237385723,0.8347415213741814,0.01901896716533396,0.020264548513174163,0.11279643104255418,0.9910881540700524,0.16482515292641195,0.030367299070858698,0.14565907477543966
100,0.0,0.28851923892185893,0.8324051090986703,0.01755967450716433,0.011562387070059745,0.10834077703181791,0.9974860712625943,0.1733383397422866,0.020411125459102196,0.13683836027619
