Frame,Center of Mass distance,Symmetry,Grounding,Arm fold,Leg fold,Kinetic Energy,Potential energy,Bone length coherence,Torque,Center velocity
1,0.0,0.705651637535731,0.0,0.04526485006199443,0.0,0.0666139379515956,0.9984144965789663,0.9999930017047848,0.10897267377866653,0.14364099422608848
2,0.0019097522464745352,0.7086510659630038,0.005038839879088205,0.046876694966749774,0.005275294619713379,0.0666139379515956,0.9984144965789663,0.9946912589861185,0.10897267377866653,0.14364099422608848
3,0.001894285688306112,0.7107803573370945,0.007001874633430177,0.04746440674336936,0.009034633253809127,0.04540250399585305,0.9964067984941057,0.9894000841988192,0.05727282430029557,0.0848851810498827
4,0.0026027684143802698,0.7122682905198549,0.009516652903422768,0.047422120775748644,0.012109314415937916,0.03879816831058989,0.9965450376828053,0.9847672724583274,0.08667385862162658,0.09639364399512806
5,0.0010722342414277463,0.7133103491589873,0.008471214703386238,0.04667427393772128,0.014773999246360015,0.01994752544172146,0.999139686470011,0.9804742942888051,0.01741262953374751,0.029061144952984952
6,0.004306710900375076,0.711644903755576,0.014672820767087614,0.045030979924291864,0.015550903122950956,0.029139680571917872,0.9999999265525391,0.9763006565281585,0.10336742999348361,0.07332560832326727
7,0.006721558130428852,0.708518915039819,0.01930375296290501,0.04330615575159272,0.016790624377141287,0.011188022686438733,0.9965436560743414,0.9721418981862053,0.07694195134780717,0.02161388364619697
8,0.008188038939317214,0.7051394839211852,0.022186509373275647,0.04174098777143452,0.017806506125870092,0.0,0.9951048156143342,0.9680566711669791,0.015516488163840034,0.0
9,0.010474215248624066,0.7005958616748773,0.02611190779720634,0.04022543546444349,0.017997369283707876,0.0044102344713664665,0.9946372972817161,0.9641058666146861,0.016486322722381486,0.01637570204151752
10,0.012895000061519092,0.6941714456508473,0.029815400862318295,0.03857576375092853,0.019567509219506778,0.01175326395336245,0.9936702454240309,0.9602493186571981,0.029855227244213734,0.0269306555147352
11,0.016424055564652932,0.6861803422852173,0.035536733936722756,0.03752071627644144,0.021812810151045147,0.024475448222212856,0.9914424165391232,0.956102811896322,0.017449267824879825,0.03698423310093941
12,0.02059873734166489,0.677310356749449,0.042264246753026036,0.03640482936419761,0.02674209391258063,0.03236799572498164,0.9867465907092423,0.9520291551399063,0.055057923449103326,0.04358232813752132
13,0.0259929076372107,0.6657591873826049,0.0505637756067222,0.03580610593017859,0.03115339883413175,0.05245914681568011,0.979993597651039,0.9476729443672757,0.052601778639838295,0.06443816689972857
14,0.03308131135653042,0.6520704716568255,0.061475725562189394,0.0363352793308339,0.039049471475916385,0.07320141902903839,0.9705482070277814,0.9431069791488459,0.05076694999660965,0.08404568594179643
15,0.04158170880706924,0.6362968297947366,0.07449611196880403,0.03669464720269845,0.049946796286692866,0.09343042745523508,0.9578112860978968,0.9383001053845769,0.09549424335221894,0.10559771351813944
16,0.05233495491538525,0.6170639070781995,0.09106116804863555,0.037988907196954996,0.06460125976062994,0.12426905758091283,0.941353313443527,0.9332942520417886,0.03228138636955348,0.14120011304735874
17,0.06399715915522218,0.5964389646371604,0.10883999275442144,0.03909634558057461,0.08319871238952303,0.14041861845018183,0.9209605349425186,0.928180630947314,0.0382732653508975,0.14619984035316472
18,0.07702040814842903,0.5734743397500799,0.12918851283260793,0.04056309181181135,0.1072816058623522,0.159432130446199,0.8968801457369107,0.9230606013287653,0.013861359848945543,0.1557166196996492
19,0.09008834578994686,0.5489380666120073,0.14964720265799067,0.04087318504690885,0.14083651461409907,0.17413707801842995,0.8698160728595388,0.9179737616424118,0.022553014505892366,0.1289066498394526
20,0.10503725843429082,0.5234207218995093,0.1741412369595806,0.04200973361013529,0.18865638970593673,0.1904861845823064,0.8393771255135,0.91275579338266,0.03130994754868431,0.1392377688441885
21,0.12451548559604399,0.49703364512861214,0.20466809950911755,0.043378719973642885,0.24825937373035414,0.21398843484949573,0.8021845694929508,0.9074053707750033,0.026939645467520094,0.1271606907859705
22,0.1452443380753348,0.4708599771276702,0.23629856093741383,0.04312568855787821,0.30809348905538775,0.20562500230257016,0.7602005808393301,0.9016670289164425,0.09779628565860882,0.10281314161948386
23,0.16579792320450995,0.4473374288273746,0.2666077683315773,0.04066221951663168,0.35392701833441237,0.17720074048980491,0.7193437460722069,0.895563996381473,0.027433762483694304,0.07878172385113752
24,0.18440114921968137,0.42671415322905726,0.2944021974557494,0.03587453487359078,0.38461189371707943,0.16368957574138113,0.6837157261742253,0.8888749890594794,0.049895226126471175,0.11258822181579414
25,0.20258487599063577,0.40632854691800174,0.32144668936677884,0.03021680186506088,0.4069494985370236,0.187206513489989,0.6547125684590666,0.8811545630554279,0.17014543823101483,0.13362628922382752
26,0.2199445064035069,0.3867062010868884,0.34692084295230147,0.02928334018529873,0.41988242549832516,0.240299161459671,0.6301825786737003,0.8720072539764149,0.15900296042907414,0.16843848676788178
27,0.2401766969943366,0.3621995051602574,0.37551598803603886,0.03534359959769413,0.43822330065105647,0.3063778697175822,0.6073754410820942,0.861212043840646,0.22203435067915636,0.28287096109268944
28,0.26555064808966417,0.33234998664596266,0.41050053106727574,0.049745357996340014,0.4751700237829766,0.3829630550115009,0.5836150486988981,0.8484525731904978,0.35458865183262744,0.3755277856969541
29,0.2987438078820315,0.2964120087862496,0.4545411391654372,0.07270705475705114,0.538821100586238,0.48604862354209805,0.5536853457120263,0.8334901978045617,0.10504949940956367,0.4771853446296545
30,0.3335356089223803,0.25855632160281633,0.49986061111073826,0.10248731900584984,0.6321481554896945,0.5107674561135188,0.5175908711116138,0.8166392469154038,0.16682476657484824,0.4580275400163787
31,0.368400813683776,0.22242951855328064,0.5420367220660081,0.13295946824106025,0.7387881162164577,0.5509168240397322,0.4817840576186714,0.7982082350303725,0.04776052799240214,0.5745577208358154
32,0.39480279124961276,0.19990905509455587,0.570622919353019,0.17593179963023306,0.8433563734795214,0.5744132329656525,0.45557366412110784,0.7781343142921068,0.027088908072084885,0.49174958233502775
33,0.41254474320791706,0.25040487419362684,0.587714105880371,0.2298058866669065,0.8918982674712926,0.5875063060957166,0.44052294909200257,0.7563384389665095,0.10842294677724645,0.2596191995016123
34,0.4175254455128731,0.3626199796489134,0.5934549004126557,0.28981295436223425,0.9061924495799426,0.5678907706242629,0.42871834494235417,0.7331777574430707,0.2414438948195281,0.25909702027792014
35,0.41187665494004905,0.4961897090590016,0.5910199812284475,0.355869082119823,0.9087269709377269,0.6577840614652902,0.4217900580257088,0.7084364925858454,0.5385992097960302,0.3317465612254737
36,0.41001987921089417,0.6320630468895061,0.5917100800509812,0.4337134054406112,0.9058646621469119,0.8051498599400029,0.4150245167518473,0.6818278760336315,0.44219904660603443,0.5379538879045052
37,0.41047435190559045,0.7568543453904382,0.5945410510877975,0.5228044401043348,0.9116281059177858,0.9172566857577419,0.40133763966966096,0.6532802192442251,0.04635093027382264,0.6742311852280475
38,0.4096735092702313,0.8579386904166705,0.5960037921576677,0.6131860763115009,0.9235449290278717,0.913240743704295,0.39257477474118174,0.6229003038222443,0.29927011914019835,0.5898553526388847
39,0.4112910175551929,0.9225179688319424,0.5987263830066338,0.692630655206241,0.9298507404451125,0.817635044479907,0.3955155437103469,0.5912057802844003,0.1171895692361185,0.5084977043313451
40,0.41353683195565394,0.9576620075629212,0.600718050710501,0.7615488324195226,0.9355580772005709,0.7762394860940175,0.41063543647441864,0.5584926195368107,0.0,0.556387189849773
41,0.4277768145683474,0.9646836452932389,0.6125169510164851,0.8215307840424334,0.935647375524943,0.7532597930011531,0.43131101416678463,0.5251146615139454,0.06640865528560043,0.5703450856417646
42,0.44823065676402957,0.950385951316763,0.6294126281853617,0.8710137275626298,0.9369090184341197,0.682560534259323,0.44822931000880695,0.491497107916538,0.2456309975398664,0.6098858013173781
43,0.46661707075830144,0.9269438764355608,0.6446912147908361,0.9117036582899922,0.9398218802014011,0.573985770541818,0.4638140971370679,0.45799078026304346,0.1946347770738209,0.5301507514330431
44,0.483923894567742,0.9014491554120584,0.6590440399774912,0.9439421376900188,0.9411050598383687,0.47026110178323766,0.4790026912498236,0.4249626041787385,0.3078682750552818,0.507157973554308
45,0.4961414290346577,0.8812181648719826,0.6692162308385918,0.96752345900183,0.940961841481729,0.34702280812127473,0.49403855429020527,0.3926963704802966,0.046941286322220034,0.4458032612511425
46,0.5242063587719377,0.8662894580135241,0.6931085258103221,0.9832765365590496,0.9377667517107656,0.3305322650640091,0.4961387087773317,0.3614269857127565,0.4466205645887757,0.6224093560888587
47,0.5336722516952523,0.8584362692178324,0.701185590067905,0.9931861044544465,0.9338605325814955,0.20745313980047925,0.49467396354782917,0.3312520063063119,0.05933921206812191,0.3735311776610839
48,0.5484809369679513,0.8566135103787791,0.7139729982172531,0.9980224782834536,0.9289177610946711,0.196404309421027,0.4977269820164045,0.3022679279760932,0.16945021530962606,0.43985893814296584
49,0.5506801873129971,0.8624301804216122,0.7174051493466331,0.9999999224456504,0.9238985900206097,0.15624164793764056,0.500046777819413,0.27454372238092584,0.10275557571078213,0.31702876536612573
50,0.5553865797077474,0.8682700103198345,0.722888918417948,0.9999707189115158,0.9203637670412335,0.13122428474381465,0.505051398984291,0.248005217100554,0.07421174854942804,0.28845111236010357
51,0.551895814490605,0.8766328759797736,0.7219847435587321,0.9989097203871926,0.9169466323154976,0.11177073250033569,0.5119199541273786,0.22269221960111732,0.11916200791874507,0.22226155783495133
52,0.5653081800158739,0.8890787651417703,0.7346912859951636,0.9960160446100956,0.91197262176597,0.16531714239358422,0.5111354412849288,0.19849545830254312,0.16803948048085515,0.3431020687100907
53,0.5719118442995379,0.8994354113766344,0.7416061433054291,0.9919959628598117,0.9070870863393445,0.10500869755966671,0.5013678344273229,0.1753928581596057,0.06501759897370966,0.1928752651415316
54,0.5754307336048042,0.909702489782971,0.7458771503779218,0.987402806076551,0.9033270789044627,0.08279731219208726,0.49592989187015585,0.15332794571008881,0.002360746103411216,0.15677398389236308
55,0.5734859906924844,0.9210642460805392,0.745827042716253,0.9818384946088446,0.9005702092340733,0.08348204295356595,0.49306912936745717,0.13232079618790643,0.07265075710034803,0.10305117073727187
56,0.5706914317284608,0.9319888458645285,0.7449756598577232,0.9787964772245142,0.8981652721902844,0.06050267167424284,0.4927530872523939,0.11221764904327691,0.039789540960302704,0.04327329796394838
57,0.5627796511825268,0.944205459317893,0.7401984311854273,0.9724716712455655,0.897267141418789,0.09165196102307774,0.4960149026502962,0.09301246520440787,0.21282286039526965,0.04589765639431289
58,0.5613502165309603,0.9606973314855238,0.7408135922103765,0.9580557185500767,0.8980519738184262,0.18715293205896813,0.49436294715606977,0.07486622611306001,0.21478973479679694,0.0307817971776963
59,0.5552939499914357,0.9779393104673705,0.7375838849819343,0.93102719903734,0.9026306849828916,0.2928440890091479,0.48669550051699445,0.05809172066723747,0.9999999997647259,0.13798766026751544
60,0.5778448145758805,0.9964699968370025,0.7575871319539359,0.8847040026445719,0.9078055890866222,0.5559467971576755,0.45681661172823823,0.04302231568172439,0.0004210839583743291,0.11346304966773543
61,0.5860323577664901,0.9999999908825589,0.7659866524360511,0.8182167873813447,0.913566497568371,0.6613679911731118,0.409644201498768,0.029978414579042673,0.21570182616290784,0.11414733601361897
62,0.5929863126544862,0.9798754937989904,0.7732618822594771,0.7372500072651204,0.920751763317218,0.7598347449658055,0.3657133768762097,0.01916999582372491,0.23011785547149433,0.17820765203546396
63,0.6029996127595737,0.9244366010038654,0.7814424054167105,0.6442546277675726,0.9257165816243993,0.8425393895071185,0.31761437609650006,0.010718522113244148,0.09511598542052654,0.17825716974848027
64,0.6191063476690555,0.8279775985902118,0.7931188327550003,0.5514645894540826,0.9314429825241797,0.8764493200255327,0.2670789995760499,0.004655229205807202,0.29174798253974266,0.09527772010911702
65,0.6507269789418356,0.6864917438866084,0.814921034258872,0.4580723542040999,0.9401909487075015,0.9358734963827258,0.21321163126697082,0.001043254664927438,0.21215412967212077,0.1767554588823395
66,0.6937169952692235,0.5006615866449243,0.842888491402243,0.35796292276699054,0.9542756305455917,0.9999999983851912,0.15788306690877013,0.0,0.25663271503259266,0.43421141209512254
67,0.7474834301768036,0.30289899393280934,0.8752902529083657,0.25702789742989796,0.9655121047412102,0.9382825157912698,0.10604615188068821,0.0012425236291779761,0.20900214903165173,0.6038138224318148
68,0.8080901723214134,0.1161136925965258,0.9095484585403266,0.1644561894066163,0.9727132038762258,0.8970623684828475,0.06111648592137296,0.00444635116035396,0.42508704411360454,0.8345120311527745
69,0.867662940748278,0.0,0.9407181084372057,0.08834998827200814,0.9791718601116683,0.8135976233112823,0.0291562750050177,0.009162400193862236,0.6562375975589145,0.9999999888785102
70,0.9168349848538737,0.015466716264669863,0.964276986133414,0.037543391994787796,0.9856255984245408,0.6629022701424221,0.013684121761534175,0.014870150318695699,0.3640438276514385,0.9678376931173944
71,0.9663313741857867,0.03774097912705971,0.9864435866589735,0.008048645383457174,0.9934960055469539,0.565086844765034,0.00538981935985224,0.021056961580691598,0.364772274159925,0.8547390099944281
72,0.9999999968168133,0.05764535622202795,0.9999999460895079,0.0,0.9999999080420523,0.45765785273547416,0.0,0.027412578623113786,0.364772274159925,0.6921797106689949
