Frame,Center of Mass distance,Symmetry,Grounding,Arm fold,Leg fold,Kinetic Energy,Potential energy,Bone length coherence,Torque,Center velocity
1,0.0014660305948841319,0.9985313680606103,0.18488779821909263,0.9969584602040743,0.9645658552153737,0.016432046851708376,0.054002674842042485,0.12782862265548922,0.15056833677333614,0.0506366984206469
2,0.0012550363462903319,0.9985357068615872,0.18381417159994745,0.9977939960086681,0.9712129817585905,0.016432046851708376,0.054002674842042485,0.11528258195728534,0.15056833677333614,0.0506366984206469
3,4.500195423014009e-05,0.999999993231172,0.18454344388854776,0.999999947162414,0.9746942014286314,0.06758788724489413,0.03405143157018054,0.09580437849879528,0.14181931368610656,0.11179775858112881
4,0.0005428601816744352,0.9988019011479492,0.18179897619741428,0.9995943892360941,0.9872036051235629,0.020159752420752786,0.014669637825276655,0.07861131393941141,0.07282191777192944,0.04686139286893737
5,0.0,0.9991489261416931,0.18208158090129947,0.9997574518700197,0.9803412052500331,0.0074382616958404355,0.006961265172691399,0.055680238640050755,0.037808827788452425,0.03224769051324309
6,0.0033108056800389084,0.9921060329182615,0.17929138949014747,0.9910657624266683,0.9793751208021239,0.017566147313190904,0.0007026860185479458,0.03910709603595768,0.277757903116303,0.0
7,0.006871189988933077,0.9840812830078651,0.173778384069112,0.9809105949898228,0.9940880227692949,0.09533203031372486,0.0,0.024984719411756923,0.12653156618321085,0.12698894194255453
8,0.010328555886539071,0.9761265717477725,0.17003847061662136,0.9672931206969072,0.9999996959499615,0.1495633235885973,0.02483853409558418,0.014350297724824322,0.7974429526063029,0.19573566279909685
9,0.017673231926207764,0.9619409570381846,0.16599295809030798,0.9441202243074227,0.9879632843191037,0.3213282093213433,0.07879451730100279,0.006827069210762948,0.08021452095099006,0.3525320524304933
10,0.026337805527877983,0.9472786653537772,0.1596997653893389,0.9200164392975035,0.9746017051475736,0.3575220502371554,0.14856093960988867,0.0015737000710576137,0.40745489094395576,0.3972015400910702
11,0.037726685348405314,0.9289379455067369,0.15187857731925564,0.8926191214597613,0.9608672166025707,0.4508042669799887,0.22423155708733813,0.0,0.26262187744819115,0.4847315625773926
12,0.05196885067419618,0.9066077811461889,0.14221285104508535,0.8593865873539176,0.9449474871620637,0.5128684918607799,0.30745184991825875,0.0014946610405938863,0.3843544232540972,0.5494491849158447
13,0.07102585486669674,0.8784778155147072,0.12915499531770594,0.822117034702167,0.9230565593034524,0.5971162386783437,0.3926355666083181,0.006955375879199844,0.3432461229381129,0.6283062540827578
14,0.09521195257822951,0.84378582126158,0.1130432066533399,0.7810151057562922,0.8945745914645129,0.6676044609731596,0.47668791172647407,0.015613802694362806,0.3992413966732222,0.6916733489111822
15,0.12387172038540188,0.8002476326475889,0.0957886211871754,0.7346086089386175,0.8585051700842872,0.7493999479416378,0.5626161630753895,0.028741464003612726,0.44739109044347486,0.7504231155513229
16,0.15908229896175197,0.7460482427954526,0.0758851154829949,0.6833231110081474,0.8179276353572794,0.8323139067711118,0.6519126180812764,0.04630199382018939,0.4044651427505726,0.8332319675498937
17,0.20129963427607425,0.6800268819774212,0.05364545974016109,0.6276557920330254,0.7670491928629873,0.9077678905993679,0.7412460307796579,0.06771418547488355,0.25608260729631804,0.9066587384032737
18,0.2507349566564288,0.6019570776552466,0.028221434522531473,0.5672887774498012,0.7204419094145498,0.959269399417167,0.8245699269959127,0.09286966982639665,0.076328222480837,0.9586796281191622
19,0.3076043149370726,0.5140118082033868,0.0,0.5038494026852035,0.6670312816792404,0.9835096960951424,0.8930289004872458,0.12116312182341211,0.03235195738272962,0.9886000785772868
20,0.3727942731792132,0.41637559396137064,0.7599728124008087,0.43834235796938553,0.6027336101437529,0.9999999984245268,0.9439958490480578,0.15161324984031171,0.06644194135667038,0.9999999948763968
21,0.4431263526263364,0.31179195149406436,0.790603526853097,0.37187497815904613,0.533717850206819,0.9894088145131741,0.9791416564895035,0.18399665189018774,0.03119864793597565,0.9764835935360082
22,0.5197796644481035,0.2040659182374556,0.8223768822131504,0.3061671523134992,0.45561031886955894,0.9863545796187421,0.9979851375169262,0.2186376473641306,0.08509188838362416,0.966407659639529
23,0.6012822189613533,0.10272934683333075,0.8537427929273111,0.24175217886419959,0.3477732672239565,0.9752592463564772,0.9999999375329844,0.2560249797558147,0.07494381424857045,0.9598289197651194
24,0.6874298126275931,0.0303471087954454,0.8848206738252219,0.1781657151586464,0.23218200855761395,0.9666070044097737,0.9863382781668963,0.2968754869189748,0.556419902684065,0.9432222688498503
25,0.7694251155312644,0.005449400610414079,0.9134702245424849,0.11814472450983618,0.14157157803671508,0.8778417522152541,0.9591121478920454,0.3408554101742518,0.914825787829825,0.8687538333935246
26,0.8422376650932926,0.0014597668641506726,0.938825422544335,0.06707939105184563,0.08163186218052637,0.7270587945431578,0.9217723346962855,0.3867370871900947,0.9999999995719562,0.7437164224435268
27,0.905823558174327,0.0,0.9611810010904615,0.028164113885341072,0.02723839104116776,0.573145424543767,0.8725388561572638,0.43217177746062607,0.949180048706094,0.596158415479616
28,0.9505988229967883,0.000988431757932834,0.9777005929569971,0.0032842806966514697,0.0,0.42179251292965386,0.8207193783255021,0.4740732168239962,0.48921669844775,0.44672028337590447
29,0.9770755723824912,0.006207876474185047,0.9904154038637129,0.0,0.04536450249298804,0.35553884061417285,0.7725177268306477,0.5107354261196907,0.1642652436355741,0.3020545448638777
30,0.9882469343621332,0.014662775570186437,0.9990492831197094,0.0021209273146854295,0.11834412878851408,0.35152603850567726,0.7287590188750561,0.5415832718434408,0.21404924305483464,0.26420880671727603
31,0.9931319598393326,0.023852047280898347,0.9951606623486862,0.003839519994747595,0.17607288969515328,0.30155318858014235,0.6947272669410142,0.5679710023762323,0.392049926159629,0.2286673143053252
32,0.9945811156508956,0.032611320280808216,0.9916415727946143,0.0024165588721943806,0.21506462027880527,0.21511265734740298,0.6700393823775926,0.591118565927574,0.16263555526110593,0.1779775755110763
33,0.999999995591559,0.03778809292439225,0.987751517798483,0.002224586431539092,0.23401922683404225,0.17559216710372738,0.6465642443106906,0.6117057290371276,0.21426413321150894,0.1569208415633513
34,0.9970094625367566,0.04441411452222014,0.9869106565607207,0.0077512062791824585,0.24945430195945578,0.12766459488930662,0.6268054483876969,0.6302726678922982,0.16339546525115323,0.11935126290410575
35,0.9953341486527374,0.04952980112199771,0.9860302917748754,0.010812617520619404,0.26422055358243934,0.09190714049570858,0.6145531822186352,0.6475766874033627,0.2052641020363114,0.0911186933932044
36,0.9953167024547759,0.05280092856172591,0.9855576834229899,0.013195144564356128,0.24688701647872974,0.04436894656145148,0.6023120785396419,0.6639479250963702,0.05072086212937377,0.04584535484663519
37,0.9922251849089742,0.0562685168755039,0.9862376308393984,0.014096427850409399,0.23021852741798574,0.036481833335937,0.5920944378644594,0.6798818627787839,0.025654925313939668,0.05473479119135277
38,0.9888044067636157,0.059145094907157816,0.9866876657352367,0.0173585497906939,0.2199866679537843,0.03158359572816474,0.5817157785609476,0.6957574804675367,0.03198952796473381,0.04033723582318114
39,0.9871179888285109,0.061229079808530575,0.9866962087282712,0.01883618799035242,0.20617793780912033,0.026949285863003,0.5679496823122852,0.7115954009604453,0.029783240650835686,0.030819048089528088
40,0.9789840270458646,0.06564824602347893,0.988664027934031,0.019967205048742043,0.1922669641834068,0.04685354685946612,0.5575293324577342,0.7274379498453234,0.03073244310978163,0.0556419475512951
41,0.9733625763327847,0.07086562549212894,0.9895416801636937,0.021464023765470085,0.18513192229927752,0.043313792428845276,0.5509211902171198,0.7436111996467115,0.026226942380305908,0.030543407531180216
42,0.9663378125461919,0.07616686155032064,0.9908436447736712,0.02164608216561729,0.1844413739423893,0.037739270019096334,0.5447807077733919,0.7606072917391642,0.0,0.029547400747540593
43,0.959439300920246,0.08185376970954655,0.9920834388430984,0.021931512777329742,0.18387031702571052,0.0452161242596502,0.5406206126918395,0.7784769715905897,0.016884675188750416,0.03824825673600006
44,0.950713243737718,0.08725216462980266,0.9936706895343368,0.02291745931695903,0.1871392811828902,0.04897667968713738,0.5375268711204673,0.7971332815846202,0.13717704138913467,0.04066927416659846
45,0.9371745495303688,0.09365453859617542,0.9964054450271846,0.02631503240267328,0.19137655006615423,0.08335338507161429,0.5359418176476957,0.8162777003513111,0.040073947853291214,0.07230083282336662
46,0.9218508530860946,0.09935531608562699,0.9999999872934588,0.03173615378040589,0.18869064675034977,0.09691282358265671,0.5375592165901273,0.8355565214634089,0.0907338215439049,0.10025555464700081
47,0.9055913353314713,0.10479891570526984,0.9964581060316928,0.03703995047876636,0.18992436780392463,0.12013249511772545,0.5384484453670093,0.8547326227672091,0.10578222749287758,0.12395039049581284
48,0.8915941770224132,0.10980555903447503,0.9932447246772672,0.042333188991460484,0.18888569398743849,0.106901614380049,0.5381540912530095,0.8734475327058159,0.4183850862914134,0.1233615435424739
49,0.881574206473084,0.11485262875777642,0.9908090362982395,0.04441653053921035,0.18267308331050344,0.04263478232070085,0.5398591901177612,0.8919738445654689,0.046189864310104876,0.05481028871189336
50,0.875813699746582,0.11966760183194336,0.9895452657264636,0.04354450728056735,0.18911968702893855,0.023989157124081017,0.5437588007722032,0.9103295000252474,0.03995540075896241,0.0311034396296199
51,0.871692791375761,0.12392659305037776,0.9885115635692916,0.03977090870602522,0.1924131448549474,0.015056717429267579,0.5499428785433279,0.9285979607500656,0.012285639251321472,0.018824195987993564
52,0.8659814506472046,0.12806943705632756,0.9869803100148777,0.036893948191932625,0.1940656959367262,0.017815252023976196,0.5572490145277658,0.9466242468810013,0.13544068971982826,0.032189110154230864
53,0.8601533823259447,0.13156877451872417,0.9851934214243702,0.035146167009869576,0.18576137416645946,0.0,0.5643351104661344,0.9644496951109569,0.008734137180695411,0.013617977079911687
54,0.8529074359413326,0.13545419985533932,0.9829842158971762,0.03365193077837825,0.1809565681479494,0.003389493212709448,0.5718006536116566,0.9822117234609818,0.029782449995845665,0.012478265188471503
55,0.8441099923902606,0.13944831375610103,0.9801392745014674,0.03223638069520186,0.1701970816004478,0.017852748462022058,0.5804222435248015,0.9999838005988275,0.029782449995845665,0.032416403085400426
