Frame,Center of Mass distance,Symmetry,Grounding,Arm fold,Leg fold,Kinetic Energy,Potential energy,Bone length coherence,Torque,Center velocity
1,0.0,0.6763285369889969,0.0,0.04221034165317164,0.7466836882792481,0.03462331270545055,0.9999999352326767,0.9999970083866584,0.08997301873631237,0.04860419094875334
2,0.006471393517616172,0.6726963218879849,0.024677039448339443,0.041807893152712106,0.748294709165857,0.03462331270545055,0.9999999352326767,0.9996515745619879,0.08997301873631237,0.04860419094875334
3,0.01617957969382394,0.6670096116699704,0.061921620861848825,0.04156522595959936,0.7525481172426368,0.056721609222611505,0.986817895875493,0.9988339245610554,0.10469993764444561,0.0723095527652885
4,0.029720647914881597,0.6598648419653991,0.1125636466415758,0.040822904545537664,0.7575707720611495,0.08103741659220796,0.9684164620467239,0.9975822068764166,0.21546039443626608,0.09866716822207204
5,0.04956063166844157,0.6491233328121905,0.18594779499237976,0.039494974551093895,0.7679303548298404,0.12147692631705251,0.9422401337173154,0.9960950735372349,0.2957754059055645,0.1403144253296978
6,0.07808104545054005,0.6355641613971337,0.2878785311600724,0.03670399663734077,0.7870549135620218,0.1750631562556291,0.9046651846882326,0.9943782825239103,0.41318424622379163,0.19911794655381695
7,0.11858745232421365,0.617254808847675,0.425241077059218,0.03509249962632295,0.8084288234661435,0.24936691620478435,0.8534389401634429,0.9921954238597442,0.4672888094235733,0.2824928149178621
8,0.17342810362647013,0.5946137813814876,0.5985873691559842,0.03615625867473095,0.8316942192700295,0.3361589623435228,0.7868883835047327,0.9891030729031054,0.3578683262301928,0.37641530953963476
9,0.24084791313295426,0.5686143339532277,0.7957100225794612,0.044461602711374414,0.8574399250326932,0.4160279026087922,0.7054234905344925,0.984291099471932,0.4021384871244048,0.4372221584616986
10,0.31761687785440124,0.5436049189072525,0.9999998592559615,0.06557713575542119,0.8825020277462482,0.499761808451098,0.6135149664989674,0.976530875452711,0.5719927245783296,0.4727148438874802
11,0.3942020809782026,0.5360680234571763,0.8167381170141366,0.10625300719199991,0.8904494053050093,0.5714154939474967,0.52257212784901,0.9645707118614054,0.8033842862990818,0.4628745796623122
12,0.469379819025111,0.5692271624545965,0.6511982727434109,0.16484885936802857,0.8853877283983822,0.668182969297437,0.436361715197438,0.9477391419853375,0.7034115288380464,0.3884817437332472
13,0.5327891942390993,0.6610814490967966,0.5232386237870291,0.24037938911776555,0.8504542241296169,0.7516524206851057,0.35869393421771234,0.925814946047193,0.3410861874723106,0.3056604427914845
14,0.5736892953211667,0.7911888446814753,0.44953084774613333,0.3276566733367807,0.770071349995313,0.8108086958005383,0.30229583314227143,0.8990703429402501,0.1710813925424395,0.2147779395434979
15,0.5883632226187337,0.9103797154740847,0.42563205583825037,0.42139753221527293,0.6510260214407143,0.8862972052105202,0.270754171567134,0.8684530230700286,0.1295427082730278,0.21192857184542274
16,0.5850328199135497,0.9819462205700132,0.433763272898262,0.5180055593362832,0.5081868259312515,0.9636058534180472,0.25608512450941384,0.834997985731444,0.1410856951870276,0.301060058418626
17,0.5692315983624892,0.9883492782659496,0.46185352854896355,0.6121557827073859,0.37149077067884145,0.9999999990239616,0.2510680480479429,0.7995561938292062,0.0002906217941074522,0.3495551467020704
18,0.5590505657352698,0.9339773489395866,0.4777871980314318,0.701661904913413,0.267178662178743,0.9973437152549414,0.24990859901629583,0.7630455126155838,0.17169184827465683,0.3803217092045998
19,0.560497917495676,0.841041003276411,0.4718765692047485,0.7823055735638776,0.21105745716105362,0.9570169754336026,0.2474038254589758,0.7261587916337681,0.4999202283566617,0.39546763581752253
20,0.576522148622201,0.7322530460053,0.44550975942746357,0.8522488010108153,0.20093598108589533,0.8635863202965239,0.24621966288376454,0.689454636948072,0.8661571582768749,0.4438389667689385
21,0.6056371661094256,0.6224398738428042,0.40536508578582425,0.906633968789636,0.22389493338311112,0.7172682709967267,0.2529494891723206,0.6534185710412612,0.7294117349027562,0.49993340878236425
22,0.6443654325551498,0.5043801329686947,0.35533064673643555,0.943987682032757,0.26982688712698666,0.618358799807344,0.27023303122078063,0.6183050852218146,0.5438438771112193,0.6052924268948441
23,0.6922749862348905,0.3805534383541363,0.3016261441115963,0.9642068702555101,0.3198912895367849,0.5248822845885033,0.29456828576478883,0.5843394761653377,0.20180138988936638,0.69790695513082
24,0.7552266127430491,0.2747541816910911,0.23340006178433,0.9643501292989084,0.3842130032652825,0.4964888944081366,0.312445041622781,0.5522011842528526,0.10097221270678447,0.7028905219767078
25,0.8042766615348483,0.19209222232512896,0.18445123096519062,0.9455290784432112,0.4320230746513627,0.47497124442561495,0.3134366652859649,0.5220538316921767,0.5900428581077837,0.5639712177953942
26,0.8334274349316674,0.11675847734167889,0.1592465128581426,0.9290363049047068,0.45373971239781213,0.415908103707263,0.3027148958010613,0.4935556150987249,0.3357339367258858,0.4694265360464393
27,0.8562483066418874,0.04519634934198943,0.14240988216628578,0.927572239864557,0.46642386193250174,0.3857337123323955,0.2852448067280421,0.466352856444626,0.1600544504068,0.4685991755573616
28,0.8817437678653769,0.0,0.12306071339369247,0.9341706276479563,0.4802968288426728,0.35944806874774615,0.26038191397851307,0.4403852152000458,0.0770560809302796,0.4642983640074913
29,0.9135941569144905,0.0031897024740191616,0.09476754831825182,0.9386318021887543,0.5095687001875024,0.3410663057168562,0.22487015111805517,0.4156407082855535,0.24616067649954432,0.45617886685232506
30,0.9452051663793541,0.035466163345148065,0.06667529496575988,0.9428305310553514,0.543425067217759,0.3072007904086334,0.18089677809529228,0.39207352307093735,0.2808481982242678,0.42383948882963873
31,0.9720710861519782,0.07432677346626511,0.04371256903979458,0.9492750747086656,0.5725007667352946,0.2712736435840696,0.1344937624175729,0.3696546474425585,0.548964368194049,0.38006473324657253
32,0.9874065202657364,0.10985155022380803,0.03250660353795706,0.9570657243162922,0.5862692377008039,0.200456266888062,0.09260298366704375,0.3483586047918065,0.4256011603401499,0.2734875933632848
33,0.9954484828408067,0.13744013015592546,0.02725321860040656,0.9644626626564188,0.5941316348883284,0.1428229460863412,0.060002035297374745,0.3281605178621939,0.23184992162432644,0.17976962543166514
34,0.9999999967936007,0.16187770430063397,0.025001523296339503,0.9717012505134374,0.5969935752742245,0.11185074038309371,0.035157517238859674,0.30901560643418446,0.18071733950293212,0.13390728697756288
35,0.9937008902650571,0.17730419640182743,0.03350773752105855,0.9791595185371068,0.5847250832376323,0.07720732324440546,0.019326532641003553,0.2908604378947862,0.29025309006289646,0.06691027813010493
36,0.9932865238905022,0.18789749748433374,0.03531023530819196,0.987129965701442,0.582550066409205,0.043830986284601414,0.010357788270333377,0.27363426688517933,0.07588882424945728,0.041898046626011494
37,0.9929863278558064,0.1931829679652705,0.03612815149849078,0.9934993636263675,0.5790311720072736,0.03076914602375382,0.004032952988669059,0.25726523893469627,0.003663753343523221,0.026153238195457815
38,0.9883584818862423,0.19763907165126196,0.04176052900432955,0.9945677917561752,0.567043775323567,0.03141622917137189,0.0006122352123548714,0.24170143320259735,0.06015663654922162,0.017604243256172453
39,0.9848908511152368,0.19855738329723863,0.04566860447884203,0.9913510383384626,0.5606130765983746,0.024262436772588627,0.0,0.22688482078383745,0.050639460927935906,0.006572409283232419
40,0.981758813436974,0.1970055238604264,0.049247344543860726,0.9864689838969543,0.5546497392881905,0.01849449017294215,0.0010067557791257732,0.21278113808516405,0.06818810946671017,0.01770831702214045
41,0.9812669712369569,0.19514520117193754,0.0500372929090904,0.9828466783368115,0.5542756819990414,0.009664369995534293,0.002899615170848714,0.19935165780918074,0.032893490398553805,0.015240947327790605
42,0.980118995342913,0.1928827103207039,0.0512792926509539,0.9831275793334788,0.5523717826893577,0.0073432662012849325,0.004376750783259668,0.18656466133783428,0.08181442865988398,0.011913625095491109
43,0.9776062100003668,0.18912312459248984,0.05384091711854609,0.9872103697297463,0.5495873982091554,0.024550295069380203,0.006823286322567652,0.1743719686096701,0.13657755257824156,0.03637199957492909
44,0.9772296383221698,0.18599551272225995,0.05425586831906836,0.9928271441756923,0.5488179829652863,0.00573824737323336,0.00936411815649517,0.1627334566147358,0.03454552448031004,0.0
45,0.9774279003577355,0.18390924714017762,0.053743315116773466,0.9966290117386752,0.5482260325771744,0.0015924406777845877,0.009451339026167953,0.1516239805235083,0.07835795210947093,0.006843274874148008
46,0.9769076069580351,0.18197570733269602,0.053884295786001464,0.9975606186431375,0.5474814454934203,0.018289476411678378,0.011190461791974504,0.1410024032756109,0.11776696101759801,0.030969637839860162
47,0.9768381402336082,0.17976668410355826,0.053642288483358766,0.9970578303029868,0.5463166965791423,0.0029195228227353355,0.013419047623688474,0.13083881583174792,0.03704774816570869,0.008118163031027624
48,0.9761610820135286,0.17780311218996955,0.054282694600256816,0.9957423828786456,0.5450302491086376,0.012448992869081861,0.015393508321815286,0.1210977860398302,0.09704222795874104,0.020588916490783284
49,0.9765057064014971,0.17593516289301234,0.053822081644519355,0.9939953765532028,0.5449985501314678,0.0,0.017502605213716705,0.11175770766344544,0.07774742360162516,0.00513309437082201
50,0.9758910454899645,0.17417669259209334,0.05437401811068719,0.9938173947010444,0.5447741713033772,0.016612901728416726,0.019561824860385442,0.10279642542394703,0.04196464795867586,0.02885921832363891
51,0.9774807793052207,0.17327095743888069,0.05276843664292008,0.9937536038631638,0.5463642381043926,0.013297278512160665,0.020228697730908567,0.09419722805162807,0.07986359627500804,0.02257823698401041
52,0.9773213369532048,0.17194823505807386,0.052914554259611196,0.9940742030616164,0.5460297170537206,0.0003542866406423021,0.019949299177819922,0.08593221102681492,0.009532056992591575,0.008610505146385837
53,0.9776406343733314,0.1712933498430887,0.05248932916416582,0.9940482513078162,0.5467904728117888,0.0006507229012006756,0.02115084174656965,0.07798513605548012,0.008454665170534122,0.007752235616262177
54,0.9774772477431497,0.16906807925852044,0.052443096637010286,0.993895064404797,0.5461790457752354,0.0019817586350890388,0.022701336596930133,0.07033818744767527,0.005687766804165116,0.010015138806922029
55,0.977677085856385,0.16567420909716435,0.05198819140067473,0.9936428469303366,0.5451895870138238,0.006517455137076758,0.024726244106075296,0.06297546479338206,0.06520196502814549,0.013592634226636532
56,0.9795286339362448,0.15853215890982708,0.049477936407699624,0.9956984774653134,0.5467506384605696,0.01996885372248286,0.027677280332744702,0.055886263503675544,0.008197260181323196,0.027175479117280223
57,0.9803998497348584,0.15178042745296647,0.047460828371052324,0.9999999411654141,0.549069752489742,0.0287443313157198,0.031789790412967214,0.049094364816043935,0.17960343360966713,0.03863010223384384
58,0.9803712832408005,0.1433029156016331,0.04549623135290281,0.9987402495753686,0.5514746774997703,0.05880367790851802,0.0384043667935877,0.04261076286143748,0.13555144620533105,0.0798834662267524
59,0.9763611288460711,0.12894893535119617,0.04695740751980141,0.9897415494858846,0.5488488548297124,0.08658776266245936,0.051150549464716116,0.036446000284578985,0.1615457842622288,0.1092120496911381
60,0.9701927260219041,0.10939893171936488,0.049920855433291035,0.9759979886441708,0.5450720689805815,0.11359216715930827,0.07097405853237522,0.030612278279725545,0.25986586717545485,0.13742652004979983
61,0.9642944034125467,0.08183018295560096,0.05169652693923598,0.9589200719104725,0.5435261995109911,0.16091334980185568,0.097345708911253,0.02511636498699641,0.5385008014067298,0.1906108245622675
62,0.9473520019844854,0.04370542208165024,0.06384312459851392,0.9383469965798421,0.5311914205394387,0.23286987382268926,0.1334860887178182,0.019989091652391995,0.44581682264335487,0.2933475404115168
63,0.9248161509124598,0.009750223290194744,0.08039208623251284,0.9147379484614153,0.515065131493433,0.30043652694170525,0.17748700956686445,0.015277122839834862,0.5431101964245715,0.38592178294047913
64,0.897502489031326,0.014492926108578112,0.09939422566546789,0.8868454675167838,0.49988828699695786,0.38611084419126623,0.2223185039770563,0.011051763684947154,0.7805827801516737,0.5114464455357505
65,0.8567581462553605,0.08131895969721491,0.13169535130495502,0.8571550666779268,0.47299614818090563,0.4949801886179735,0.2650108186221608,0.007371870065233786,0.9999999997908797,0.6804933585685244
66,0.7946017310474194,0.2008846350809277,0.18932219870281078,0.8298548535491648,0.42541713905020384,0.633193939725166,0.3005684686851518,0.004317248896428054,0.23080871701069544,0.9087202152368204
67,0.7219839430077946,0.35756288029623323,0.265917509989149,0.8070189089337333,0.355349160314923,0.6830522221249327,0.31693985066922675,0.0020125832135448013,0.019602681895313136,0.9999999960595888
68,0.6329130837982566,0.516141187534287,0.3863161430537749,0.7937787944392258,0.2229879085114626,0.6990814508762863,0.31818573858503457,0.0005346762819274189,0.2662359722674632,0.9433954138835569
69,0.5534180861085412,0.6672262469863507,0.5167592207219417,0.773864692589394,0.09626614277871602,0.7595630997581381,0.3211499695209558,0.0,0.5194396554329767,0.7865220415586052
70,0.4943972977874044,0.8135179238224152,0.6227121867521849,0.7344674230952646,0.02716336408676481,0.8689212196820184,0.32072999468030694,0.0005666943968797632,0.279418719444587,0.7539532646040127
71,0.4568662716181666,0.9241955550280226,0.702451880657054,0.6714568701949553,0.0,0.9287209908181017,0.3178440339652243,0.0022913885672804853,0.0,0.5395925022245611
72,0.4355136366645587,0.9888650785888917,0.7547648412916997,0.5931984996102374,0.015763765946977374,0.9469292214921894,0.32143983130395526,0.005201469983814583,0.037824745813365056,0.4357006758843992
73,0.41733855138413695,0.9999999927790282,0.8060946472593594,0.5089875581592894,0.05299254120360312,0.9453535372096304,0.33282747415056957,0.009303757425702861,0.26075544589424043,0.3642201741146717
74,0.4010785283831077,0.9544214016392245,0.8523425852574981,0.4231179512879328,0.11457207867720423,0.902539338598324,0.35399658711514376,0.014580169361318908,0.24600286398864743,0.29665005797160693
75,0.38076312597935813,0.8651079049745778,0.9070610642340927,0.34016418934155307,0.1876271957424866,0.8529579276537955,0.38483122485283133,0.020988622533362446,0.35252989770315213,0.2414734398912875
76,0.35464132833820045,0.7534738962734095,0.9730799714686296,0.26300383818411804,0.271927521825886,0.7905533654387127,0.42792250922298564,0.02844669784352039,0.46057438226598735,0.20502403334218938
77,0.3246816494882392,0.6493139476028159,0.9552362136882984,0.19156386792928237,0.3672741939517799,0.7198396460240948,0.47940037746966424,0.036871047646136364,0.6186336099114905,0.20462000030518904
78,0.2943113381921146,0.5825634101225186,0.8862789725056425,0.12777027500221746,0.4766189957098345,0.6377250959487631,0.5342352145973044,0.04609712909026738,0.7947583998547855,0.18225117428648518
79,0.2640778285013837,0.565872647569674,0.8206011015053727,0.07447120432663323,0.5960730451145952,0.5260306721100347,0.5879793577248857,0.05592981762387353,0.7850894204068408,0.201716868168091
80,0.23501186538300542,0.5766823258508524,0.7595179446236688,0.034601300031866324,0.7295351564781404,0.4101850558456163,0.635417548633766,0.06615541748503102,0.7162868684405687,0.21158571994835343
81,0.20559723239441666,0.5942124240749241,0.6955404032332402,0.009474307720362165,0.8567735917720839,0.3057074193474453,0.6776466113600844,0.07653896169024126,0.5741173410519553,0.2183168784449975
82,0.17578001358786813,0.6115504671649064,0.6228942630011068,0.0,0.9537859490782139,0.22044333843138278,0.7162565960429319,0.08686428292332492,0.23273949203659358,0.2312579233747806
83,0.14869613545253596,0.6265224219297999,0.548090890221008,0.004579344783201513,0.9999997763703118,0.16670561629525762,0.7517919595329298,0.09698720617648944,0.20258122226855071,0.20340073651634513
84,0.12687702744558707,0.6384406229103927,0.47981600689285386,0.013934023871696727,0.996831897393052,0.12637882346788132,0.7838863340116148,0.10687662866629277,0.1854185780879089,0.1511569634654008
85,0.10901404869737354,0.6477496228213465,0.4190738862454155,0.02133658055071464,0.9684056755139795,0.09961316174034156,0.8121786481323315,0.11655363619448342,0.09347251878132591,0.11239237607647792
86,0.09358661719667973,0.6554842893114277,0.3649575716657266,0.0268564486225021,0.9436621744992859,0.0844991986557979,0.8374491429446208,0.1260390750726701,0.06948707066896198,0.09332334656112352
87,0.08015199218423795,0.6624475082271065,0.3178103824758109,0.03004794452939999,0.9304443177675672,0.07411921507757076,0.8591265574668635,0.13535841526938772,0.0363791880898617,0.08592738278944326
88,0.06866050076944492,0.6694151872864859,0.27657838828810277,0.03352952507090625,0.917020638421172,0.06488743762449961,0.876050116622682,0.14451820315120442,0.07021475001832672,0.08253629499534264
89,0.05901727716193021,0.6753243667298862,0.24072306577702401,0.03656735194790146,0.9024809020494216,0.05390173823128516,0.8888584730559523,0.1535305778277265,0.0014223349123597734,0.06743781587988475
90,0.04945034069679355,0.6821368241722897,0.20366255831422705,0.04066978605772004,0.8820939917321529,0.054508090686084615,0.9000948151035528,0.16239915032666494,0.0017730987675326625,0.06232012706296397
91,0.03969528381297269,0.6887897188861235,0.1652955538803231,0.044470565506156315,0.8607939674881498,0.055969556155604776,0.9113747687873828,0.17113194970671797,0.0741817008657206,0.06346019292284545
92,0.03153749645667458,0.6942811662173134,0.13255179460121705,0.047109264836645716,0.8415641794206503,0.04504155650222575,0.9220664776321033,0.17972982251589817,0.08283362968609788,0.04877228341597519
93,0.02524057554476843,0.6984240866048285,0.10684565334470697,0.04881460233316414,0.8257396734060922,0.0334447162934889,0.9303823353233683,0.18820457111474403,0.05184632596695022,0.03874943627249594
94,0.019631568752608977,0.7020343079820455,0.08398395405215638,0.04887395472958918,0.8147136083806099,0.028753458917885444,0.9369530959550763,0.19656793289529115,0.0664048086259731,0.03205302481396001
95,0.015293349894748556,0.7039358214257703,0.06581400010800569,0.0488619544759698,0.8045113984355852,0.020620024079103454,0.9428840478799746,0.204819958688765,0.024676160676786425,0.02232754843834152
96,0.012665623520840762,0.7040917910272021,0.053737322011400614,0.047898261110579314,0.7949436327710958,0.015244165284335249,0.9478469044468777,0.2129629133871854,0.01621672678670437,0.009864326502347937
97,0.0092119027549121,0.7037126127011389,0.03894690872514094,0.04608190898053528,0.7851467556763693,0.021179192664822762,0.9541460458642297,0.22098917796195353,0.009275266544170538,0.017883387140814923
98,0.007959393441433519,0.700844719666193,0.032245189989347285,0.04466315012413486,0.7748434011534124,0.02471656475639176,0.9608424937983656,0.22890153138464991,0.008058459082054997,0.02010182581141274
99,0.007754650857568483,0.6969709585606956,0.027823419768660786,0.0433508445656937,0.7566668821621859,0.02958453237511154,0.9660979874297906,0.23669718992191288,0.03890947394766632,0.029089961036244758
100,0.009396364972207992,0.6910488341003176,0.028834827646685386,0.04210639033707086,0.7271080641254938,0.04109191572256978,0.9696174450808808,0.24437815573750862,0.03890947394766632,0.04819621716429657
