Frame,Center of Mass distance,Symmetry,Grounding,Arm fold,Leg fold,Kinetic Energy,Potential energy,Bone length coherence,Torque,Center velocity
1,0.05232166855072625,0.20175023328666408,0.0,0.5331623161597633,0.5524718532640485,0.16432676056242157,0.5045917561428216,0.0,0.03693719995837495,0.09282003407096207
2,0.04587655744468822,0.23371966790866636,0.013831496505937043,0.5421144718625968,0.5387098918086224,0.16432676056242157,0.5045917561428216,0.010556270232781259,0.03693719995837495,0.09282003407096207
3,0.039137027669876485,0.2650880688283117,0.024859780788753894,0.5478704032561539,0.5263573403062066,0.14851138675674486,0.5186489030630055,0.02673825396137829,0.035730667887044126,0.06863062285643294
4,0.032798399343058796,0.29168648133348224,0.033880277505275856,0.5495835203986925,0.517721761666393,0.12442414158636884,0.5306154976633729,0.04518824622007003,0.035278202606288674,0.05466223753850679
5,0.02767841856503168,0.31165750895280364,0.041643820809566454,0.5521205335761001,0.5127062343952534,0.09585465762342367,0.5407087400112605,0.06276509668843769,0.0262392211767349,0.04843011251050668
6,0.023626636804372787,0.3273963245385655,0.047930793949612936,0.5582824945820716,0.5084962794556377,0.07597913067841233,0.5490253405466012,0.07930162927442128,0.020671362254896276,0.043429509101861864
7,0.020388487413194524,0.34220487913649683,0.052086476406428904,0.5668815210490696,0.5020511781462332,0.06500525624971452,0.5551722165402735,0.09600033307603008,0.02364553752302906,0.03660858521605369
8,0.018635580537457428,0.3552684645161012,0.055268979666369046,0.5846708891311628,0.4931077901888912,0.05170070817978212,0.5594763835306354,0.1127788762362953,0.019591751883915265,0.030606918380011953
9,0.018280798930824228,0.36637141383605687,0.05798950656069378,0.6137493593051758,0.48239539500820144,0.04139669249585105,0.5630612836293964,0.12928538103976542,0.009125569263307298,0.027298231028858325
10,0.01991781799376424,0.37603609532055804,0.06079791958815154,0.6523736098531269,0.4683914052271942,0.038432125313189645,0.5664942352293073,0.14547991685579192,0.0033372733845200564,0.025042215847240985
11,0.022938218970822953,0.384456452272296,0.06364423560869574,0.6977712257998251,0.4522734262784802,0.03880515277833236,0.5696514775163652,0.1615944825589838,0.009129703685103994,0.02535967568892581
12,0.025651359779100404,0.3911709618432701,0.06591178629982926,0.7378857436022015,0.43955666338772614,0.03179833230937418,0.572273986342787,0.1781816861590117,0.004964149949863713,0.022033365334072234
13,0.026138817503928508,0.39752897076878957,0.0683916960631519,0.7673262039188496,0.4334403017678669,0.03284087210116619,0.5748774149334319,0.1959235800578434,3.1899548664120984e-06,0.02434308556462349
14,0.026221919227572273,0.40135262181782955,0.07104761255523101,0.7831575874790866,0.4302713853057349,0.030405475166634215,0.5779862077253717,0.2142955582360002,0.0001382861030638706,0.02357171542714095
15,0.02730094714568663,0.40246668553650244,0.0743024101926777,0.7929432732130609,0.4257134070535522,0.027776980243692347,0.5815985469921738,0.23232993391265525,0.016632109255822567,0.026065816356383553
16,0.027788809889223675,0.4043517519479569,0.07587225379864602,0.7960374955269034,0.4219897206442581,0.01889562568022792,0.5845228399843146,0.2503796878090283,0.007027438622015691,0.015199423252752425
17,0.028148907173690046,0.40685679892229515,0.07689805916728074,0.7968110868794004,0.41883917863084286,0.015719647355559672,0.5861801440408384,0.268810832435937,0.006439229994753624,0.0072941798350148425
18,0.029320820024955035,0.4055318252708166,0.07760707906761861,0.7965923076056394,0.41658148429952296,0.005673016840033649,0.587075453112806,0.2864476914545354,0.002499910871319563,0.006340920111292203
19,0.029960346209184786,0.40403414638914936,0.07850118578953166,0.7954870595826434,0.4153816005160917,0.00928257960930076,0.587849840570635,0.3031057655801564,0.0045294118524489444,0.011811278059580039
20,0.030125535879215626,0.4031032727410153,0.07915770207804872,0.7930836669387941,0.4154478394290432,0.006990795830196639,0.5886898172505314,0.318863315487665,0.00024849887642598153,0.006516470685307506
21,0.03011869998372272,0.4023064549451729,0.08002495751609237,0.7897578538112023,0.41539756153277213,0.007118170692801171,0.5894731634783789,0.33357164312038384,0.002943867244812465,0.004848999603360171
22,0.030229439721355483,0.4016446219623285,0.08083900062615057,0.7865183910231294,0.4149706505308521,0.0051789381130525666,0.5903333918651216,0.3472586698580809,4.510653999879938e-05,0.0016526321465671861
23,0.0298256685729083,0.40160963051379445,0.08193450529881602,0.7839987360838983,0.4147634760637025,0.007336326230435633,0.5913518478501106,0.360009750733088,0.002740682628034813,0.004564328541477964
24,0.029511614189796368,0.4000649974673585,0.08123567385943445,0.7860288905773637,0.41582807165335794,0.0033387494543123896,0.5913603040460168,0.3716690719365651,0.0009798712830994191,0.0
25,0.029365835098664517,0.4000070037578317,0.08275352540810695,0.7851087479109528,0.4145015593236652,0.008121030605544127,0.591764966991029,0.382606331586823,0.004356914721134489,0.005140548941390482
26,0.02946184546589525,0.4006018683372327,0.0839363353863719,0.784902358339702,0.4126542370738548,0.006213663411740874,0.5935201381648189,0.3931142812976838,0.0014139613415216662,0.004041101622573602
27,0.029634059469291135,0.40131224105888763,0.08497181233274474,0.7848777540456564,0.4105729089402412,0.0053355329954716405,0.5948577293985307,0.4033107522295938,0.0014038093433397629,0.0037420567420797025
28,0.029611224682346466,0.40200232638517486,0.08602420787929345,0.7851413752070961,0.40934736853006615,0.004195302503773716,0.5960627251846992,0.4132913435454099,0.0036575241667039936,0.0031176332039534287
29,0.029696993416874217,0.40224588451037346,0.08676321233496621,0.7865557648913314,0.4088154287132606,0.0006959635616430229,0.596918409174698,0.4231348327452289,0.00030630952412153214,0.0008530777669198033
30,0.029532532281608674,0.40279738720903757,0.08759164824473283,0.7885134641068176,0.4091858189731359,0.0011457984094837687,0.5974592645822255,0.4329318527010199,0.0031620501077260998,0.001427484865861655
31,0.02895290663693656,0.40371773919615145,0.08820027024084717,0.7913109279978185,0.41079023888786453,0.0,0.5976931510151814,0.4427686980249522,0.00038195101083428535,0.0013626378006024935
32,0.027767139838500907,0.4047176362071795,0.0888784316802032,0.7948233580349576,0.41535396478302167,0.003371273159928539,0.5976157917490463,0.4526212763387059,0.0,0.006132218858288218
33,0.025966945813466407,0.40612207145681134,0.0885592323139914,0.7989916202740005,0.4230346506583313,0.00787583523052138,0.5969313687308576,0.4623995136653837,0.0007704072685006334,0.009079849644201735
34,0.023642843369791538,0.4089532811236848,0.08702561316282442,0.8014684380869412,0.43135878419970103,0.009512608733933024,0.5952028347327156,0.4719328693616926,0.008507622157806982,0.004341384891809403
35,0.021489290500472977,0.4132033956382928,0.08467805747545865,0.8012953209425626,0.4381241859965386,0.014541632145359444,0.5928418306473549,0.4808875659854343,0.004977753292888823,0.014100072025919006
36,0.02008338212672509,0.4175858659362969,0.08228073179576512,0.8014840514240825,0.4429936553897471,0.019822707013270473,0.5905581590292033,0.4888138571760774,0.005633041566638433,0.024174332991976105
37,0.019648621486980145,0.4226977703283857,0.0802754274003937,0.8022500636376753,0.444698915871763,0.026705078429457595,0.588885201518368,0.4953681137226195,0.012753713115161566,0.03315870745929202
38,0.01980925737253195,0.4287836562251468,0.07877516053851784,0.8047038446163739,0.4439491291813694,0.038233399671635596,0.5880576156535443,0.5002534247494633,0.020226602903310888,0.04433160989101885
39,0.019875270188773154,0.43602018973594775,0.07785176732004885,0.8082663490478965,0.4414641240421029,0.051218378480507934,0.5879343018139196,0.5033098583533862,0.023830700824105374,0.05311762157085603
40,0.018721534108658174,0.4455604023431372,0.07735060907503455,0.8103920811775094,0.43862197441905015,0.06315788791708342,0.5881603250053586,0.5046687311348492,0.012819052463474404,0.059407516545736234
41,0.01701088134676348,0.45747558270544253,0.0785194259055635,0.8106180238474334,0.43335926856083357,0.07129061010263071,0.589700099573721,0.5046076972652612,0.003189444757854489,0.057031901785259416
42,0.014380389250107005,0.47103929212846607,0.0798729299056951,0.8124626760391647,0.43001111450410867,0.0744881541779574,0.59265659333272,0.5033464757625525,0.014409376812111331,0.05685664158421851
43,0.011449921516715617,0.4839471451562249,0.08034784433783852,0.813402811789258,0.4289853451749718,0.06710022938992324,0.595095893827679,0.5011133629318911,0.017988666650540695,0.05212104628580952
44,0.008602697606259521,0.4941867802470746,0.08228960939825103,0.8160802866933372,0.43020957926298037,0.059550038432250846,0.5974665465949468,0.49799772732284137,0.024537006140310583,0.050671318083776555
45,0.005976080937335877,0.5019768228786804,0.08396372486823106,0.8181017711342549,0.43253456784263283,0.048832604066287436,0.6003621486579984,0.4941232541132473,0.027063290587658443,0.04250001886695207
46,0.0033840376313745333,0.5078075896518364,0.08401756598198686,0.8176733581110656,0.43565399216212986,0.03618378916788108,0.6021903156568897,0.48968401198316613,0.024478428960514328,0.03028135087157316
47,0.001242550272720994,0.5106910195035866,0.08291646618170426,0.8163354319308841,0.43978949476903434,0.027895339432792494,0.6024083082503146,0.4847314715317973,0.02008517383883313,0.02490790618694347
48,0.000330603969805823,0.510280637918228,0.08087568867724021,0.8146165104384906,0.44322628534301955,0.023915849882809596,0.6013734456957781,0.47928384770242566,0.008941541976660253,0.020530708571794527
49,0.0,0.5076516866710789,0.07844103017460785,0.8130659205331207,0.445598501351316,0.02228020823967642,0.5997064289145296,0.4733486050393075,0.008161573400388101,0.017086896073023963
50,0.00011860015714346958,0.5023576616384661,0.0750338798764927,0.8126077014654037,0.4481602392058676,0.029244948380350733,0.5973456091027651,0.4669269976195344,0.02016437737307322,0.018094285938481197
51,0.0014289594910549745,0.49380107413290597,0.07077665384646502,0.8147049931430955,0.4500289166770121,0.041627250649766814,0.5937445975748606,0.4599368822712162,0.016528281220390295,0.022416816394273453
52,0.003586665642119566,0.4825197105920782,0.06606606261865937,0.8182781117227755,0.45203666139571125,0.052009742850705774,0.5891224937647517,0.45241597965593255,0.024387723891422065,0.026159999838262463
53,0.006606992068664534,0.4679270018610292,0.060364654220251626,0.8227049277540038,0.45457869398287887,0.066566025359662,0.5834163935173691,0.4443221512682943,0.02127249151339368,0.03169737394025273
54,0.009753156015282085,0.4492494391950147,0.05457629753867327,0.8270081599387706,0.46064093561761155,0.08103490834080396,0.5770376271428455,0.4356413489515946,0.03295775660123148,0.03680108465332864
55,0.012643589828201286,0.42570512368907987,0.04787623346230627,0.8308437443537703,0.47210641835449807,0.1018731274527356,0.5701051203587805,0.4263521227514316,0.02583519730819451,0.04419376164975208
56,0.014819703847790652,0.3964607821317551,0.04122729819497413,0.8352227803351627,0.48985316612157326,0.12247665585769565,0.562618981559422,0.416304458827123,0.03045251177034727,0.03989371174944198
57,0.01648813874655584,0.3629576234296955,0.03281941999429298,0.8396239365904823,0.5153924301260008,0.1439566757538271,0.5538730835039043,0.4053964028787466,0.023234982767272244,0.03994366450131144
58,0.019075366543113065,0.32844469395094544,0.9830044967487193,0.8397937266725667,0.5457614356684397,0.1607370418832687,0.5415056786900428,0.3936321059061377,0.03801078146106585,0.05085201607400081
59,0.02539723038986343,0.29185843681371443,0.9999999899639161,0.8347752443400162,0.5738633274492189,0.1827021036707181,0.5238062441556245,0.3809166664416487,0.026687377027074747,0.0684282016767027
60,0.034709014952686766,0.2534262820309607,0.9853454022272601,0.8231384568392699,0.6013401263606025,0.20228000618974792,0.5001274298174888,0.367060321647753,0.014951799619861133,0.07697131352887862
61,0.04689953811195048,0.21405512420374245,0.9605427983140605,0.8121558894829696,0.6263695558852311,0.21646916289954782,0.4716744799164718,0.35206028964588043,0.04684496605555654,0.08451745749798494
62,0.06256252624897102,0.1688949846520173,0.9338559152801948,0.8050117638426358,0.6544535775111477,0.2483077535355469,0.43945425535435895,0.3357579739414958,0.0701259143811395,0.08369120265913278
63,0.08085649087772034,0.11860135987832585,0.9059202317343399,0.8082767910708866,0.6888865857519542,0.29415609471636484,0.40324914649333354,0.317962961168981,0.0978579544239916,0.0762942680678413
64,0.10238283022110223,0.06612949903458885,0.8748554437607842,0.8224049928310734,0.731375284202926,0.3583019275949902,0.36194883796715965,0.29851740786489833,0.14389449766005985,0.07254510679406721
65,0.13542176082413435,0.01864186084593198,0.8348202487846124,0.8272691645754592,0.775503171680778,0.45272719079351836,0.3122459729878792,0.2774188458710933,0.1840927980210981,0.12166746127030378
66,0.19923689928723523,0.0,0.22549360762687065,0.792970583156848,0.8131094911179118,0.575067166632805,0.250827022084121,0.2549592584239027,0.17151839972623467,0.2839168512178385
67,0.3213220618182147,0.009570519601221739,0.2999177571391115,0.717535146409934,0.8425949291231156,0.7144552097742584,0.18076668467478355,0.23171903097580512,0.17106691283368772,0.5523742016310379
68,0.5312802822143646,0.022680169985883115,0.3861471143690074,0.658101545470482,0.8736220355166163,0.9025428423981772,0.1112096909832617,0.20850718625668788,0.05340174297367807,0.8831781287982481
69,0.8009331833235876,0.07585671009434444,0.46155545215779736,0.6976784803224304,0.9221814170074746,0.9999999995405554,0.0514524995738151,0.1856868247887436,0.15751859242357533,0.9999999983188296
70,0.9894874841514751,0.17741206670635687,0.5004344912779338,0.847466448833235,0.9999999743991596,0.8707593817229853,0.011648311627574954,0.16359350200602654,0.18556531338320048,0.8187411758795884
71,0.9999999974200413,0.27298849015193616,0.5015655383327007,0.9551746930457244,0.9357963307404183,0.7435037251576865,0.0,0.14288385347204174,0.08574941850066131,0.678145952996655
72,0.8800536510940089,0.3117264185053813,0.47537279565520957,0.8332384168528868,0.8359895619765243,0.682687855069259,0.01596266872256599,0.1241519647548508,0.013803467703493,0.5433687876611549
73,0.7567664553384179,0.3303018003921638,0.44519975379258175,0.5297567948872418,0.7728272729704769,0.7585740277579975,0.04695882448340197,0.1088380155188046,0.14587446224225958,0.47425087605441385
74,0.6812661073303604,0.41786040219895426,0.42624510266312254,0.21307304191754659,0.7256884702197477,0.8323269966423581,0.07763863569386005,0.09890990989823625,0.06954652888878309,0.22413835256849823
75,0.619173771146962,0.49999841473119616,0.4117614380821307,0.17514520273078799,0.6862696294291998,0.7402627307162744,0.10540662491040931,0.09481017705609802,0.21716017070779844,0.12896704433441783
76,0.5385947859266722,0.5496870324073406,0.3925995647405043,0.10952421146708598,0.6429723548943072,0.5473403745256766,0.13557990751840826,0.09570225508469501,0.1883793866260163,0.12971222267835003
77,0.46506880855942473,0.5983158637777969,0.3708899580314494,0.1084269492753503,0.6042271611298401,0.3913736169508453,0.17138186335252673,0.10007427695308474,0.09355170660987652,0.04689169060285496
78,0.41397652726598594,0.6462052053106516,0.3521028836384701,0.1312975930575182,0.5738550973562189,0.2988426808104997,0.20877504361109786,0.10704935317149271,0.03653779560511405,0.10075002408805854
79,0.3790138425951472,0.6927260647940557,0.330698845499013,0.15235884624222906,0.5248005565730391,0.25682373278146753,0.24460290816510633,0.11614870547302303,0.11535040724838616,0.16892899255726174
80,0.3466649172823754,0.7401756992565238,0.30423591677323647,0.16820928785606223,0.4611992258814206,0.2917198889996281,0.28340240175772097,0.12741066269422469,0.3227313975953872,0.26760368880894264
81,0.28876784889705914,0.7955935680187975,0.2734067422879853,0.16436128755499554,0.4170091891450269,0.3766483325551871,0.3296772427712367,0.1403528148331583,0.28220724765822547,0.363109249496325
82,0.21794100386119916,0.8543407951158539,0.22653491949204435,0.11341500600035238,0.3562730708977604,0.47553964563574047,0.38774405252089444,0.15382569563057163,0.25105131740773445,0.45929659008764423
83,0.16175570184321433,0.9028236071679606,0.16140100513440162,0.0,0.2788520364410134,0.5692887209506354,0.45724536811141026,0.16704307618875022,0.6425242114923146,0.5353350446330888
84,0.15779036665145474,0.9379221295433381,0.9357781133800263,0.03611248619197206,0.20948035199168138,0.7692458965472199,0.5403035662300085,0.1790518849936239,0.3665919180099301,0.6579401312704185
85,0.1738715350431852,0.9387761700131801,0.04281663948851493,0.2767828306038467,0.14435787031581884,0.8752268482027186,0.6348463331627321,0.1899764371512343,0.9402344712713638,0.6871368200898123
86,0.2285449137154554,0.9245638999471377,0.12682740339392715,0.5777817205024188,0.09501904682817437,0.6055120094064731,0.7223653511487889,0.20144667064988725,0.9999999999767557,0.43491926162443767
87,0.27213222258739156,0.917746041797511,0.17334421001386724,0.8049060624673048,0.06407773352124642,0.3215210732414117,0.7914272192802448,0.21477669782403908,0.1367701554801238,0.18855876462738735
88,0.29215311577727454,0.9157689406605747,0.20669433052699313,0.9286834840203422,0.05811553088493492,0.26803880590471457,0.8514243853908106,0.23058942789735098,0.007597672705904973,0.13133632240655693
89,0.29569551106162667,0.914457105696143,0.23451886553056017,0.9806598312404963,0.07309649641064213,0.2657311303310608,0.9095428520018878,0.2492785228200896,0.20095567843969483,0.15084914605412106
90,0.2963772741098978,0.9130358229306855,0.24969497511241062,0.9999999452087184,0.07841330788776434,0.2102712065018017,0.9582233210436781,0.270693104179535,0.14882011774543621,0.11604754238975848
91,0.27905028034176177,0.9245500769268459,0.24472058960353535,0.9885862376005945,0.0763574121382292,0.1968104586453955,0.9882129470169574,0.2944928778930485,0.15299471465237544,0.08900286981693194
92,0.24983472616282673,0.944766640865642,0.22722486533590058,0.9542369200267272,0.07019452741597253,0.248208753485376,0.9999999889867568,0.3205262945408487,0.03108732775632899,0.08676219187547296
93,0.21999400420387355,0.9669824460318247,0.20434809635548357,0.9153692855791135,0.0629792821332039,0.2511012238106553,0.9990771996081614,0.34856472841270425,0.10828758229357814,0.07809411891476242
94,0.1994742268071132,0.9838145803268005,0.18355618116342115,0.873121207723881,0.05461020984717381,0.2126675978781035,0.9903612100365641,0.3782906221718769,0.16801226287312496,0.0561488178613974
95,0.1889994270814639,0.9938012096610489,0.16838818451661572,0.8351391032982797,0.04595848960330473,0.15875532708739032,0.9802244934107311,0.40933949860192315,0.15296628989400465,0.040879954163458646
96,0.1860923083580063,0.9977600293278157,0.1598376785199341,0.8077272759407174,0.03743187669032564,0.10805344431472157,0.9731178341323963,0.4412442040396444,0.09082782499301002,0.03331588881165913
97,0.18539479249278035,0.9992137119790493,0.15534340824753975,0.7937003140428553,0.03185697645916212,0.07655354295049746,0.9698164563595267,0.473685411412014,0.031961145544196656,0.03596308060059619
98,0.1862371616216776,0.9997533803206623,0.15246350547521378,0.7912740957092507,0.026591251532456922,0.06310353841416659,0.9687429753407479,0.5064671079693107,0.018393414947664638,0.037010108412639665
99,0.18740768995232338,0.9999999956648793,0.14957618516227536,0.7958037900654934,0.02157367253059648,0.0571698792948622,0.9685238588456565,0.5395021647788377,0.027761428111679733,0.03908345526281958
