Frame,Center of Mass distance,Symmetry,Grounding,Arm fold,Leg fold,Kinetic Energy,Potential energy,Bone length coherence,Torque,Center velocity
1,0.4107791451184272,0.4383918338499566,0.00972743089519978,0.1039182316495308,0.0,0.01710230356869105,0.99895558333916,0.9999987498262919,0.13441656083436826,0.022474210141448334
2,0.4099999889737354,0.44026294976534325,0.009842297596656308,0.10245972307090323,0.00038402264190857147,0.01710230356869105,0.99895558333916,0.9992672994424763,0.13441656083436826,0.022474210141448334
3,0.4094694384517008,0.4423175683199482,0.009949890525711208,0.10089931076001378,0.0008638514738066464,0.006897976295926785,0.9989222331551522,0.998008271861779,0.0568122359443188,0.013895111034361456
4,0.4089505036409137,0.4440700802365226,0.010013748357148208,0.09934730784622349,0.0013615301814979175,0.0029480998960188867,0.9989984359436826,0.9967526094553221,0.041112626388384955,0.009706043118644116
5,0.40848861764998456,0.446348072573515,0.010317007133630787,0.09753160453518864,0.0019950663142169894,0.0038585374204943984,0.999288402260174,0.9954553968840982,0.00731993681102206,0.01044830169625559
6,0.40799846061704675,0.4479695797472601,0.010248950787615526,0.096251903024993,0.002194808303762614,0.006238546765929727,0.9995353037176231,0.9941551360673553,0.05846896784759606,0.014604353630428616
7,0.4075605318709978,0.4497126477125055,0.010344629661027777,0.09487031033591056,0.002581181465972178,0.0034655995150075472,0.9995843111804489,0.9928644520715394,0.009154379994582238,0.01053081386539176
8,0.40701201413281357,0.45132359862659127,0.010150196656380022,0.0929164827748995,0.002801086536501239,0.005964191369722045,0.9995903000648451,0.9916173308251783,0.04924131336837747,0.012802167630528497
9,0.4063961873617367,0.45262217466207644,0.010097085104508033,0.09193020499927687,0.0033781682399994903,0.0033085381044638423,0.9994735164331654,0.9905321087834079,0.021158427036607728,0.008899437571458415
10,0.40575259502030336,0.45422780020090936,0.010060873772410894,0.09123502026965533,0.0039639621295599016,0.005104308247203153,0.9993581297067279,0.989398992212697,0.04312670621038736,0.010799412528418897
11,0.40519664682169637,0.4551993921076105,0.01007800343792534,0.09047195127475777,0.004486593265061328,0.0024804424028522835,0.9991892202317156,0.988351517205186,0.04520396270082259,0.008276495992330334
12,0.4045826339684321,0.4576043517858169,0.010281977275864386,0.08941211565998201,0.005288688885219408,0.0050599008523736985,0.9992282175096263,0.9871577329136593,0.051990002324615786,0.009329130617665535
13,0.40413081311466525,0.45914104117044025,0.010495005659109439,0.08845275268928751,0.006141025870154106,0.0,0.9995260117545341,0.986015576923486,0.06476494089685716,0.0
14,0.4031218010652784,0.46140035983169086,0.01048612234196741,0.08729280572304461,0.007494008610426491,0.013306401225571637,0.9996064486288171,0.9848799369000324,0.007938330659755787,0.004906347497114574
15,0.4019664935496403,0.4642203955558481,0.010992221425944144,0.08607903737577306,0.009607070783276616,0.01914121424636949,0.9995935363202075,0.9836438241366869,0.09004061076649475,0.008948577232874155
16,0.40060698224565316,0.4682731399122224,0.0115817360222362,0.08446971011181355,0.01209004226851155,0.0350790259019574,0.9998231318700384,0.982395740514737,0.1001620815070984,0.01636363195128446
17,0.39896592085138277,0.47248200709602733,0.012125412839057891,0.08348630557812671,0.01511155243670432,0.05243542478258741,0.9999999850078557,0.9810647288562874,0.07825926546974872,0.04137512182887058
18,0.3973875657833509,0.4769712041471506,0.012335016659025297,0.08295830185412416,0.017414806517487308,0.06553960619010096,0.99983638232853,0.9796150885122832,0.11095430015592418,0.05126208074387077
19,0.39607564809530027,0.48177047119167005,0.011842701442240745,0.08243359347944837,0.017800271278322576,0.08114607212865849,0.9989476965007489,0.9779283979324773,0.06280636892862572,0.05701329386473945
20,0.3950941977630396,0.4853018641942743,0.010962876343218618,0.08289604236885151,0.01798766665842051,0.08194868856446035,0.9974021259270264,0.9760455993004544,0.04091511459352453,0.07585119932363096
21,0.39439405877173067,0.49087290695767855,0.010476211655842076,0.0832520144455754,0.018251961038789944,0.08070442685034665,0.9961079874337121,0.9739504107515764,0.011857176963549383,0.07413130263785941
22,0.3931355478612199,0.49761447136906123,0.010265320200082346,0.08233719522665806,0.019302981763633858,0.0834934988728464,0.9952148874464047,0.9716647658004967,0.0777736560641481,0.0685821718468016
23,0.3923465549995192,0.5039551654806271,0.009927041839523138,0.08110794952636145,0.01965661819293439,0.07926376058152426,0.9942776071909251,0.9692351943175298,0.05991645412848663,0.06975432254681202
24,0.3914894663754557,0.5109983337189774,0.009592359270405554,0.08090932315704219,0.02016556416098349,0.07658889894971513,0.9933688336171094,0.9666528934238591,0.05146934419104661,0.06604138476551442
25,0.39055225288136836,0.5179491998919961,0.009393460635243857,0.07994062052896725,0.020578712138550163,0.07308919133276287,0.9925380464561839,0.9639684437464734,0.12803628477659987,0.05728818172326453
26,0.38978419101310596,0.5248820562093701,0.009024326959553752,0.07853406034579284,0.020902877422639327,0.06478739652001224,0.9916145076356189,0.961148832270921,0.05071087391285966,0.05381511460316405
27,0.3887891218075278,0.5321117745044996,0.008907076762055984,0.07669318823026973,0.021489321119191693,0.06196116224396454,0.9907072994831455,0.9582379851854886,0.07794656057570265,0.047389278695884766
28,0.3878714329693736,0.5401066250519239,0.009177226860770988,0.07413598666497954,0.022320520584515474,0.05745148497456847,0.9901986998999448,0.9552146454880411,0.01490639863860769,0.0405460473036055
29,0.38642796383633937,0.5475514461865775,0.009128919971177563,0.07186013897989432,0.02330768418671348,0.06286395621255286,0.9896944539918826,0.9521419352579793,0.04012899095797729,0.040954092378681986
30,0.38516757333470397,0.5548701051200747,0.009124789947864803,0.06902292384446831,0.024332981330804353,0.06438212036647975,0.9889269818415315,0.9490211024524613,0.048628982937344974,0.051938572556907994
31,0.38383212717531795,0.5630533521096829,0.009323332428445557,0.06624672212922723,0.025775203304311774,0.06259077703380587,0.9884348898416222,0.9458689030063316,0.03052474951894603,0.04566519954038994
32,0.3819590851203536,0.5706302282811168,0.009307038356370898,0.06438362972424437,0.028297275810096226,0.06705219502888853,0.9880085946329779,0.9427099516687634,0.09098438688862193,0.056512920784100924
33,0.3794978262188752,0.5762085903443971,0.00859859210201184,0.06500333973598985,0.0319639327909819,0.0705398771728461,0.9868078384806858,0.9395926374971263,0.014473600800695624,0.06871713208485371
34,0.37579364007405136,0.5813188003258566,0.007345400567088595,0.0692326684868168,0.037746398620474075,0.08510052149738874,0.984457576640717,0.9365132457345797,0.10785983772402467,0.08037554309777425
35,0.3712339267644778,0.5858427782486358,0.006376920373936483,0.07482863507238484,0.045920233719399274,0.08842835891079234,0.981537983720988,0.9335179238870581,0.05688025273736447,0.07410560759613895
36,0.3658080632872258,0.5909522118800211,0.005922713697304803,0.07659349909963949,0.05719700733010347,0.10381576260846684,0.9789938760652757,0.9306290242393763,0.157181479581827,0.0892081625244368
37,0.36005365651014,0.5953761094265874,0.005945144586772979,0.08311754485342641,0.06981074424332709,0.09229889099633365,0.9768728213260842,0.9278926637271299,0.08293423185070467,0.06652859634433134
38,0.3548256362204739,0.5994504450618426,0.006544470556855223,0.0893217218970978,0.08266429004260346,0.08511948974373586,0.9753460529034219,0.9253099458145913,0.01565901583877232,0.0473297012047532
39,0.3483839832353563,0.60281329805893,0.007281398903993931,0.09810426308736907,0.09830224959634225,0.08936992094744715,0.9743748846938469,0.9228536982204084,0.035263412592476236,0.029551009472061254
40,0.34315770929351924,0.6071728351407538,0.00902819671605738,0.10881624597583976,0.11501869144613923,0.08987830082350128,0.9744288773712522,0.9204922639514558,0.12386849899112483,0.03722394742860674
41,0.33653075416782,0.6098911944292635,0.009867358550721529,0.11695021415322482,0.13316960267097772,0.08780322378940114,0.9746599927239247,0.9182442174335341,0.06281853070738076,0.031701655691775174
42,0.32984332786281345,0.6113788697801626,0.009855317786237645,0.12460386440423551,0.1504916355281599,0.08280738240570033,0.9734454064234122,0.9161517877506434,0.09392219420425163,0.030117096323304508
43,0.3234958076844953,0.6129877696717251,0.010118516021499104,0.13075389005260146,0.16614927358378623,0.07809102782321367,0.9718988252955427,0.9141941175869012,0.07132215883927155,0.012541926094291346
44,0.3181838347282777,0.6135817533021725,0.010659264836718427,0.13763029676539276,0.17950049411873695,0.07072438584897946,0.9708769606252172,0.9123827336679002,0.03117985306011246,0.00988804392465141
45,0.3126090072936402,0.6140020503582254,0.011052997150431341,0.1424411890240807,0.19131757464044902,0.07981763967579497,0.9701841853668177,0.9106888499191875,0.08506320020374218,0.02460741017879311
46,0.3064178969233971,0.6135038439577893,0.010389467468021035,0.14806894200315054,0.2023561932132832,0.08579348772058025,0.9689873536713133,0.9090372203359899,0.21143590645746235,0.05225438659350014
47,0.2992674897287646,0.6117132395773908,0.008754721366399876,0.15381524913783562,0.21282093157825058,0.10832272344596085,0.9667209202740173,0.9074432186742504,0.01985499865455461,0.07181677634563773
48,0.29209656196459827,0.6105785562738096,0.007680822841874156,0.1567357152782384,0.2225690468434624,0.11096779725244639,0.9642787371493667,0.9059005987510159,0.39604422172345,0.08644801187923405
49,0.2835754358109239,0.6099230191069013,0.005469383708872213,0.15956205522981687,0.23148923521556955,0.14911764390927298,0.961166477522673,0.9043883723987465,0.13302726017854127,0.10717747646794078
50,0.27471795838458557,0.6101742385824279,0.0033741194604987707,0.16101286414687505,0.23984863663700595,0.17300839773873913,0.9571799297526398,0.9028371696345101,0.2619892034259852,0.13787284406313918
51,0.2648570292537956,0.6121097564679338,0.0013206622806180763,0.16137662069528702,0.24755610896499158,0.20681591353115203,0.9534320519206483,0.9012198223283916,0.2483398871726946,0.16204749759071363
52,0.25421533065855784,0.6176516357175293,0.0,0.15662485631186318,0.2535299601037333,0.24417004874538015,0.9494999031548893,0.8993723305764755,0.04935246175279883,0.1929470808439503
53,0.2440805555420332,0.6232918099883846,0.003869646917637691,0.15280653954655074,0.25778682904782846,0.24638230766636143,0.9448918599574949,0.8972402801537193,0.059114910496161195,0.20177540725677073
54,0.23406971908983795,0.6321821251737823,0.007766190355257609,0.1423295668536173,0.2612513026226469,0.25495240700889665,0.939939350557893,0.8947398277777633,0.025105238241650465,0.2190702874611086
55,0.22415321127533888,0.6416109618745982,0.011685733159849701,0.13104249288650885,0.26366739980317544,0.2648148272154344,0.93490076706193,0.891848607626364,0.30966398390506206,0.24248410217136446
56,0.2156518388427075,0.6543569732373314,0.014059928087181813,0.11689757377255418,0.26490105072257125,0.2654840491218055,0.9307314516214514,0.8885301425138004,0.24023292275724709,0.2639345395307837
57,0.20608039365193784,0.6669640627059457,0.01703614069133239,0.10169456867741558,0.2663101553709535,0.2986614426043151,0.9267231538805373,0.8847988599317449,0.16878190031076884,0.2984846223171366
58,0.19724905974964965,0.6815408318015304,0.019395890810759615,0.08355418697391968,0.2659560881432281,0.3153777949894846,0.9222254053338148,0.8806428640887758,0.16616221332045567,0.32828790947206055
59,0.18719030799420114,0.6982647287334645,0.021202389034441105,0.06205749199547503,0.2664320876865907,0.3625729877341141,0.9177935903184278,0.8760207922015018,0.19261161105179317,0.3686330515050773
60,0.1757553753914444,0.7150529616378374,0.02333037156036854,0.03466885519139208,0.26730588236591124,0.40847860358385185,0.9118749971937105,0.8708916103241328,0.1138681320480967,0.40970802994150574
61,0.1629625569003177,0.7316614166816187,0.9743171694831385,0.0,0.2708696268766073,0.4641803477584766,0.9040281546011557,0.8652042025039751,0.05307850108129309,0.4592288549605832
62,0.14952654441733607,0.7444537080641629,0.9727205079497273,0.004685054302180718,0.27539388384081426,0.5166781535815632,0.8945716270304447,0.8589008236611557,0.1359892542018983,0.5130947530812967
63,0.13397745638557682,0.7511100382982324,0.9721686601249253,0.009195557375589783,0.2833830195791037,0.6017891767821848,0.882797827929756,0.8519334559967814,0.5700308472073179,0.6011479619757346
64,0.11457510890431351,0.7450662430570503,0.9699697001005069,0.016649896551873027,0.29522743025420134,0.6845785760564806,0.8658237844329024,0.8443010365241697,0.32413922677558415,0.6731442304595116
65,0.09717690057304171,0.7259869285934114,0.96794589963861,0.02563600935770623,0.308514744919668,0.6741715015408979,0.8444055673907879,0.8360581650453343,0.29216662440211205,0.6691354963577186
66,0.08233137488673681,0.6971583988306381,0.9651286621109311,0.06407757816595966,0.3198062889517989,0.6346218074575211,0.821947513232608,0.8272953618582016,0.11889756578314656,0.6235548215511166
67,0.06895645530527555,0.6659339384155822,0.9603422048108734,0.11062949290744623,0.32978965275886285,0.5786528725463503,0.7977876181192534,0.8181469727592493,0.527922749649088,0.5360615332908024
68,0.058176357280919674,0.6432103324556449,0.9569520583942354,0.15432128088394445,0.33821263050229267,0.514324710671695,0.7738308308653896,0.8087310270800575,0.838750331655568,0.4718864300991688
69,0.05049149643302773,0.6346001860823396,0.9561910313953125,0.19259734572726053,0.34514548585344157,0.41069637526070873,0.7548917797266138,0.7992006093113044,0.09399930365941815,0.38030350676600244
70,0.0451219973015189,0.6310226859184608,0.9537954671931282,0.22374934835428173,0.3501641673069242,0.3222141070326647,0.7406464986185536,0.7896239301394773,0.041238048461432954,0.28099242582665623
71,0.042690182611695625,0.6291945153021006,0.9508849514108948,0.24683299030339267,0.3532047734942694,0.23886172946770196,0.7307141246603381,0.7801145536050696,0.13960396137122827,0.19772686216347268
72,0.04210031989269278,0.6265334888240649,0.9465913983525053,0.26016491504302725,0.3549288456751159,0.2212418609329092,0.725357800671044,0.7707262789888212,0.08608477505696846,0.17687727521444588
73,0.04326785863199563,0.6232714283313999,0.941890863345082,0.2665854781020905,0.35537761350550234,0.227242137669463,0.7229061610883056,0.7615049380826074,0.17247977935893724,0.17477666282219076
74,0.04496282106846907,0.6194256878724547,0.9367611894642188,0.27031656840170304,0.35612359563376783,0.2508432666814962,0.722407544396415,0.752470124136104,0.15662961227904557,0.19009907985660285
75,0.044999379671717986,0.613685860705006,0.9284321378886585,0.27174486866766184,0.3583347103736238,0.27426724081195825,0.7203435991437127,0.7436269018082512,0.1512094793896054,0.2291611763732813
76,0.04488219159378833,0.606817066323835,0.9197723556900029,0.274530192281729,0.36125761454877403,0.29145010808293526,0.7151168743087943,0.7349782775225885,0.5666945089606801,0.23457002697032264
77,0.044480197977302974,0.5977220297830143,0.9098821553022198,0.2775269073101487,0.36612207532736024,0.3562118178836054,0.7078161984299801,0.7265168290921133,0.4345276049929852,0.2974339625570157
78,0.044548237239740496,0.5858034836332219,0.8989389291030879,0.2838651346024089,0.3716417171537601,0.407728233730582,0.6984286074938068,0.7182183148885584,0.13224178180748986,0.33271118671012323
79,0.04503660094430809,0.571834930534708,0.8882481959544117,0.28779061587891963,0.378818007784218,0.43033005936303975,0.6879180790814851,0.7100683826839017,0.23606882221625136,0.3396870031128959
80,0.04492578516916131,0.5594231386866889,0.8781123927374873,0.2895087671017843,0.38876928354986756,0.410065591945843,0.6783436770291198,0.7021062799093382,0.37149903548201346,0.3148710302539104
81,0.04280338999430051,0.5463045141649416,0.8669583846686205,0.2907025308274746,0.40247587350584346,0.3752512306785471,0.6685511852827787,0.6943260177699145,0.6038400787355334,0.2812616478489912
82,0.039388135744554596,0.5343338353897457,0.8561466274537147,0.29103200009816727,0.419140277390661,0.3151999635594761,0.6578244605001594,0.6867250948049033,0.30185210961115905,0.21034948071634693
83,0.03511044580627207,0.5226184941124138,0.8450951234128723,0.29511969878884975,0.43816187001147117,0.28350180778400463,0.6468096869070632,0.6792814752952494,0.3192788421873921,0.18306011185099566
84,0.030870912708066703,0.5108684319676882,0.8331535753761876,0.29895993843211427,0.4575970006265611,0.24939130584580865,0.6345321597755442,0.6719688457657731,0.2394114316994907,0.1563975848301427
85,0.027018941428560574,0.49960756945841295,0.17768580805839473,0.30254191033488453,0.4755026447027341,0.2185781143197815,0.6211575537547243,0.6647833005010524,0.2573113988866734,0.146316864394736
86,0.023469645780339346,0.48925577492411665,0.1876260824104226,0.3074976028568657,0.4919221544358726,0.18445602784385934,0.6076357687091258,0.6576943030926012,0.15339084888328683,0.12367944434400037
87,0.020265297627379927,0.4806092865116695,0.19589595068341986,0.3122457302293538,0.50671351615098,0.1646244590375142,0.5951551515932542,0.6506939465360141,0.02135737224062974,0.12479139879812486
88,0.017504078594225782,0.47096527444696057,0.20410917667980588,0.3205394720560578,0.5202784085044269,0.16206246771507435,0.583048755565603,0.6437720266517373,0.1880443661861365,0.1220772642712913
89,0.014543297085273918,0.46361415644887316,0.21089383925582394,0.3271340825944895,0.5320067342778567,0.13562985972657907,0.5710048597158444,0.6369289936692257,0.10401846319591651,0.0968343463399315
90,0.011815380796040125,0.4569632008767834,0.21664532478924992,0.3356594332190909,0.5419348410454717,0.11998573843286955,0.5601310845149973,0.630161316733307,0.031548799421214205,0.08484769860104469
91,0.008991414760526782,0.45207197970405444,0.22131955230157488,0.3433426670486244,0.5504337628983798,0.1129802881721414,0.5504715012802116,0.6234620012292331,0.01920885593953961,0.06627663043055157
92,0.006468162816344378,0.4485294547526057,0.22577289548249618,0.3504847942542288,0.5575976669227459,0.10554206548323673,0.5416813879565437,0.6168404281766473,0.03774645897646229,0.033327511526604785
93,0.004716124842976902,0.44487398079265367,0.23101688813469137,0.35506960729559256,0.5644463902037666,0.11046002975097655,0.5329514114888739,0.6102839432233395,0.04980712713369085,0.03635750486264665
94,0.0028185038138278926,0.4416509937520374,0.2349198766003996,0.36157590252254,0.5695297736316896,0.10478404041500669,0.5249283403279276,0.603766847810694,0.2856074792967303,0.021097296425487314
95,0.0019220433967659365,0.4359876135429557,0.24170307346333492,0.36617024001547377,0.57434388523553,0.14779760261574718,0.5155601771014383,0.5972587623825744,0.02236198849757239,0.04224321978485173
96,0.0010633354955499332,0.42902472236466277,0.24852183099134456,0.37498281315832616,0.578584108435085,0.15567269074516754,0.5035382789873002,0.5907564514671848,0.23524480076297632,0.03743649625265016
97,0.00045324443973809267,0.42089004870194213,0.25689627172858587,0.3864560368499611,0.5834773549894667,0.2011715529924559,0.48987347015893173,0.584211952262891,0.01529099467755886,0.05007615873457793
98,0.0,0.41205245123547135,0.2650841970514772,0.4006999842749822,0.5885122063601714,0.20788040687868523,0.4748318498638998,0.5776046516393479,0.29297254550031565,0.056283879489704244
99,0.001394588001921327,0.4008784289474425,0.27602949853595526,0.41596895118126037,0.5925351494885639,0.2553066365461436,0.45765752213060684,0.5709139403440299,0.2219597991025448,0.06466133344358317
