Frame,Center of Mass distance,Symmetry,Grounding,Arm fold,Leg fold,Kinetic Energy,Potential energy,Bone length coherence,Torque,Center velocity
1,0.0,0.9987220733391128,0.7288120108063165,0.044858015322075895,0.9744837850845198,0.08503518919317207,0.7905181090717377,0.0,0.09812415994741717,0.09037103160518951
2,0.0026120010202949242,0.9999999888245749,0.7396670301176538,0.0432412738890295,0.9794098641632885,0.08503518919317207,0.7905181090717377,0.0004138127613460823,0.09812415994741717,0.09037103160518951
3,0.0057907808287491445,0.9993598608456448,0.7541718195661655,0.04925902852704384,0.98599194709426,0.09413334479881776,0.7984280404272298,0.0013655965571334205,0.33616832319594997,0.08728536682588502
4,0.011421940558554677,0.997413273495582,0.7773654814297984,0.05024770352422038,0.9927027000178335,0.13047098166621487,0.8093299708969576,0.003357555995539511,0.10918233554602663,0.09087767122961711
5,0.018299425724945282,0.9917190439514414,0.802557904748519,0.0443717364658862,0.9992205271504749,0.14870653963580885,0.8232725684139043,0.006731327950482463,0.48208747734458,0.07672410295281115
6,0.03139304487301175,0.9811160895207496,0.8315451475979627,0.02964671983022142,0.999999935889248,0.21411365661085546,0.8407361160215493,0.011624030410447793,0.6399068867119725,0.08147184628051178
7,0.05699288903659197,0.97245921900694,0.8758464643688539,0.004942417807077461,0.9828057357885108,0.2941296638292248,0.8650413095968336,0.017890080810909044,0.8963225240356825,0.1170675290944679
8,0.10026633394895905,0.968697106906214,0.9374805990340145,0.0,0.9403761633395034,0.4061336551531734,0.8987433268474961,0.02539616649542753,0.9999999998008189,0.16891677109897302
9,0.1605830610061919,0.950455660355545,0.9867219749510636,0.03068507832456459,0.8756500081742508,0.5485539147987831,0.9388796343382612,0.03397974613702681,0.2867008679699058,0.20239082573245995
10,0.2233972776916576,0.9033281558302527,0.9999999607338832,0.06988740417698044,0.8033411099540934,0.6153413034119001,0.9739373532836425,0.043686207045215635,0.8006465664853563,0.23171496165972716
11,0.2739677619472211,0.8278832554955665,0.9814304903260963,0.10381484829108999,0.7355123729170321,0.5556965511973595,0.9925378819884689,0.054783152122396594,0.9887977965655601,0.2642532914714088
12,0.31738255529651754,0.7353465146951446,0.9502411830166758,0.13329973418885,0.6630202811381146,0.47323397920320004,0.9931728625152944,0.06733976776418822,0.2341278849557393,0.2785829677221213
13,0.35917219666770067,0.653986745163646,0.9408472860017215,0.15448014948422378,0.5975562975191028,0.4407293950963293,0.9874094007733125,0.08108639101171576,0.23346538778831943,0.33306627381520776
14,0.40234914515211506,0.5925036338572254,0.9519038244322682,0.1972757738030215,0.5344222685519325,0.4533128497221828,0.9861973515784445,0.09574197845203955,0.2591210890500823,0.3890818350175367
15,0.4479427513980575,0.5476656478142821,0.9736720417131033,0.23878262082552015,0.4678357316106681,0.47572362313178795,0.9903091145654297,0.11124815990958839,0.33609679301207795,0.4480932987858562
16,0.49459982373917577,0.5068229179815567,0.9883559767566548,0.2784514687201641,0.39601112552415274,0.530905468698322,0.9946722845526457,0.12763166252126545,0.4582093653907017,0.5445672484581746
17,0.5369648129004958,0.46216744629051626,0.9808681391040114,0.3199120814588179,0.37314621649118196,0.61891783013903,0.9921324110746373,0.14490669111736898,0.941773750507961,0.6538185194993478
18,0.5767595018050208,0.41230264033619407,0.9459132365086713,0.3660727865432982,0.39373285037673067,0.7884849593100611,0.976372380521753,0.16322575790032465,0.37231841982137975,0.8206152919488728
19,0.6058419029778804,0.392804970805278,0.8530400106320671,0.41836201300904924,0.38315803057570436,0.9086887329615254,0.936520802028019,0.1829968776533431,0.25682404874800063,0.9364514183550454
20,0.6260603958900574,0.359929952718643,0.6969767569933809,0.47662337773771635,0.3485905928249824,0.9999999987592505,0.8630665974031594,0.20426600118649146,0.36554429848732295,0.9999999956203286
21,0.6425860672878324,0.3013270032871453,0.5267233973362543,0.5342494841366863,0.3061376383899056,0.9400093817258399,0.7649211945315201,0.22678006683947335,0.4877673447522725,0.9359772066693007
22,0.6558153732949343,0.2397746763495467,0.3534821341008571,0.587767762398523,0.2645265505383607,0.8508058394775505,0.6559602073853563,0.25012865973085757,0.4799750931873927,0.827899502991953
23,0.6791568848112396,0.20877711120744763,0.18841646390531114,0.6397352929308475,0.23858201836459708,0.7538104024722583,0.5455312372231677,0.27399947245877043,0.7344945215980277,0.7265456969389794
24,0.7072820540696051,0.19620932025463736,0.06045951340324497,0.6846893063227486,0.21429525342276415,0.6101046098787385,0.44841765558595365,0.29813038776837186,0.6782770766938495,0.6098479967348901
25,0.7384723567079223,0.18426320895966816,0.03278607987060482,0.7245359957594949,0.17557697516438472,0.4929663506012601,0.37229122980022383,0.32252943458213923,0.19339412780422188,0.5166841721317661
26,0.7758352009984274,0.1595524662566704,0.11780864973242636,0.7650241121347604,0.12513475557846104,0.457089817106333,0.3093752052542175,0.34709811108855665,0.1814080260037346,0.45631232203317434
27,0.8152445010414147,0.12677411507519276,0.1934057672905976,0.8105516023265937,0.0779102034897843,0.4214715205666379,0.2530489791521519,0.37184139921167725,0.28590058556119485,0.40528604382718425
28,0.8477469602906796,0.09530394603818854,0.2530883460133088,0.8601571207293134,0.04370088015889015,0.36721437978057775,0.2042549556510974,0.3967136787335753,0.026244356601719514,0.37499396226078824
29,0.8745494730319151,0.06425477844276278,0.3061812810181904,0.9136740201749378,0.020704403893939655,0.36294122426964043,0.16080435047785743,0.4217923681054713,0.16966012445662115,0.392774317226327
30,0.8912006432506965,0.04649734426460745,0.3388493546025187,0.951055871454512,0.046170542021363274,0.31997774238818955,0.12464761383474188,0.4473569872734231,0.11351322774342422,0.36452111325073955
31,0.8921699347493273,0.04191542698677784,0.36248407095736573,0.9766229293296886,0.04394550408439117,0.28186493599458623,0.09704023140345833,0.473295235888342,0.2582983951659031,0.3391002407589439
32,0.8915225796740615,0.039630816080056676,0.3860519290758314,0.9796736499116259,0.03619334580833172,0.2276469488239367,0.07287425941245139,0.4991566927905668,0.48355822706238927,0.28889776301334313
33,0.90657047069564,0.03470328597564901,0.41013594477167103,0.9791846584587132,0.053458578376846415,0.15676213376896495,0.052291547447394525,0.5245536820234453,0.1144130950211333,0.1868756778774859
34,0.9362455644404802,0.026609873130360177,0.4389644367862991,0.9740514945309543,0.08935199710931632,0.12925931467881205,0.03508901191362504,0.5490914415513583,0.2163712130180909,0.09978036379374673
35,0.961580089084327,0.0245844341908281,0.4597531509228729,0.9676264258052877,0.11820470756644536,0.08467946217454703,0.020689487498911197,0.572507646959786,0.14373324400129125,0.04584809390668375
36,0.9788625407692785,0.02303729355344659,0.47599118768234955,0.9657746868525265,0.13512617969444066,0.05492289582613627,0.009530546495045448,0.5946515009715984,0.1427066989442784,0.026775496507854976
37,0.9872051892088458,0.02373905879490086,0.4826650787742742,0.9670378851945388,0.1427676285984465,0.021331383125703773,0.002928043269237126,0.61552826125243,0.05655112620658877,0.00998198116098653
38,0.9942832324904253,0.02527556608439695,0.4872378823300484,0.9705163201500988,0.14920108228308737,0.016761358708149265,0.0004186689831174235,0.63518035910479,0.004996856095794043,0.017711645581624653
39,0.9991814923429407,0.028360519831472822,0.4871637686258623,0.9722045163005473,0.1554223194763099,0.021492162167435224,0.0,0.6537206250644748,0.0037660323741339815,0.03542035244411682
40,0.999999995736875,0.03163882190619485,0.4836891190979718,0.972393132573784,0.15727544018513098,0.030738960265980577,0.0020603031554826596,0.6711784751642591,0.0031487670400193114,0.04944747532597123
41,0.9924423606781317,0.03874908625651245,0.4748078868422129,0.9735965585600547,0.14802699325160196,0.04096503569919322,0.006539899921601965,0.6876775113349262,0.07523683839074291,0.04237095829287837
42,0.9828020124764837,0.046116167436689046,0.46496839317334815,0.9757447776627949,0.13622042369932316,0.03426311672366098,0.012143567874839226,0.7033262770521641,0.07471532784427959,0.02694687962626232
43,0.9726397399166835,0.05096242295060435,0.4557269059541989,0.9788553808652671,0.12394462049654224,0.02666953099960926,0.017419886059944073,0.7181717361308684,0.04562225240303535,0.019158928744241636
44,0.9618083644899117,0.05503897816882047,0.4437885433633064,0.9815891138716537,0.11253231768331298,0.039846377750311635,0.023541732517955778,0.7321933261673722,0.05041392021110781,0.02957525641997048
45,0.9547389214730034,0.054920560183515675,0.43346659106670615,0.9844913792189957,0.10713521245102577,0.032289524112388696,0.030489717784962882,0.7454355438523691,0.10212897213316403,0.024545920115772533
46,0.9499690630520177,0.05039868297642034,0.42785421688837943,0.9861793819705414,0.10331248035651443,0.023056809843729827,0.03587423083662379,0.7579109387311836,0.049060437778860815,0.011153164699787995
47,0.9460009717653342,0.04715038827901631,0.42329928217066903,0.9856865390239035,0.09906937965994811,0.02511360776378387,0.03993180821638482,0.7696293440506858,0.03592859708936466,0.029017180613782518
48,0.9396488690881768,0.04752198525272435,0.4145214853030338,0.9850148109178132,0.09296103073726998,0.03406834149434333,0.04510191946673457,0.780661839791879,0.0030650784368458136,0.038489253997988256
49,0.9336137178316392,0.04984270689051362,0.4052503765872274,0.984823943492057,0.0868891579421517,0.0368039972205452,0.05155564579124615,0.7910653894491374,0.06558702818153792,0.04282134367739545
50,0.9328387387667156,0.0513836270767325,0.4009246187120736,0.9859892399682506,0.08628143359430245,0.02404051774977056,0.05651235776279557,0.8009187186270388,0.005952992052600153,0.03865704621550078
51,0.9298784157303968,0.055919643123380686,0.3954781608925517,0.9867117032447545,0.08150487248157916,0.028123477807812033,0.05966124598087242,0.8103024277736207,0.07571775434907108,0.038766170428416305
52,0.9274551160688997,0.06138288489310806,0.3914697247993981,0.9866597085173181,0.07713527036469021,0.016243583100128394,0.06204606121389563,0.8192935660347743,0.02587017289897603,0.020257320034310407
53,0.921791552686892,0.07065653566739931,0.3837099120385326,0.9851423308448711,0.06878445151800038,0.03213736335799338,0.06453263165906294,0.8279575801303289,0.05046133027102216,0.037350524755231235
54,0.9175304519529393,0.08084707539204368,0.3784466997529856,0.9853659896147473,0.06077588011531998,0.026740486523027837,0.06678392615678504,0.8363130486287308,0.11309803122099604,0.02685870095828103
55,0.9176780450341793,0.08702988851389813,0.3797065727616057,0.9863897082118112,0.05674858255176249,0.01494788574564935,0.06633698240910081,0.8443411494585353,0.05434943159807446,0.027132346902182733
56,0.9195241906585442,0.09091916695899689,0.3833956483462678,0.9872225158006487,0.055014481578997985,0.009607877306942672,0.06364621366899731,0.8520432487584906,0.014075240150490219,0.016436174759155046
57,0.9259681601850378,0.08793324361334917,0.3899851721390097,0.9872957160682126,0.06195084085110561,0.008745233956324991,0.06048658268077106,0.8593919556085733,0.0466551547045581,0.0
58,0.9310073899371225,0.0824234731903319,0.393006145060208,0.9858787930999398,0.07076118292649831,0.007083123867200362,0.05874064988850456,0.8664117471692135,0.014530049963790799,0.009325998095562754
59,0.9342676589362539,0.07614109376916049,0.3949461732036041,0.9843415621694377,0.07761248691388123,0.009184859339758857,0.058880291971702706,0.8731267570874682,0.002148678314582476,0.012384223933975804
60,0.9385921065799455,0.07053685468597974,0.3979047251166645,0.9826210125301125,0.08566333427416079,0.014485208504998391,0.05864274265200327,0.8796265237773098,0.08405801261336991,0.006531233104319493
61,0.9399855975888959,0.06767424290714685,0.39938981743994717,0.9815200180566778,0.08883652772188363,0.0,0.05783308614880685,0.8859391071957001,0.020192988297746878,0.005065278868940838
62,0.9397456810854569,0.06718344720589528,0.400325592899113,0.9829762889078577,0.08875940638366518,0.002605536192403869,0.057465948754386945,0.8921236599263311,0.015960389822661628,0.012759993585560485
63,0.9404733479048933,0.06572233325496327,0.40250385222918506,0.9839120828687214,0.08995257587446545,0.005413395012946316,0.05679632922756697,0.8981805158567373,0.0038799733523307376,0.015892185333673738
64,0.9406417726983589,0.06466864804247639,0.4044272107853935,0.9841843248069977,0.09058214226643276,0.00964172056855406,0.05537220071768722,0.904160415755992,0.05502922742467574,0.01972217182751155
65,0.9402385420728815,0.06341099774292294,0.406004465538558,0.984563395181277,0.09002411625507845,0.002457356683528565,0.05416838560608517,0.9100121969971117,0.02651242030996609,0.013359376134526153
66,0.9403760576364905,0.06215716323499983,0.40796080349387864,0.986793590233444,0.08997596346156946,0.0034530921720826234,0.053151994947621135,0.9157774627267915,0.03571569747864961,0.01091190755376723
67,0.9421488534104541,0.059964874258943646,0.41283114119218695,0.9891140504603241,0.09111541457342509,0.018451852554046237,0.05070210980716064,0.921481921639243,0.02919166289066196,0.02955673170967699
68,0.9413086309965508,0.06005203184064827,0.4153831470580131,0.9908707165432621,0.08876608470757179,0.01842287237781553,0.04744952553360103,0.9271318234512911,0.053982265671579904,0.036935897050640064
69,0.9395692874938746,0.06092219036900802,0.4173374462868433,0.9925524907952794,0.08437096101987594,0.012022733624419165,0.044791430495357526,0.9326923882088471,0.02687687212432788,0.029738018069003325
70,0.9363281388504611,0.06203831211603517,0.4187305560678757,0.9946195589293211,0.07628552168456591,0.015266877705170944,0.042994043874501155,0.9380897298511394,0.021255908771155272,0.012474302640413954
71,0.9287203164426016,0.06515673340350586,0.4150044835936643,0.998126895990276,0.06873908735020874,0.03176082816533785,0.04366242578453039,0.94329436304339,0.14952509931505054,0.009430410968213083
72,0.9167068973871533,0.06658640614127892,0.39978581007946595,0.9999999577405181,0.0732804877924199,0.06310631756389368,0.05047603835137847,0.9482491448112154,0.027423416911518547,0.04845291745578555
73,0.9099572452964761,0.05549690562611275,0.3864060678597501,0.9998681170176155,0.06345267524422793,0.0725156615900951,0.06258917369177149,0.9528417814499048,0.07868382367360909,0.07469228202714664
74,0.897518461028451,0.044995295123116494,0.364749935563988,0.9984434019540569,0.0544960627192092,0.11010002530268956,0.07895275423413535,0.957039555595666,0.0634226732421588,0.13342123042571924
75,0.8849306495430299,0.032886178182189,0.34862001127105474,0.9953032914844006,0.03922191393739322,0.1104651597362831,0.09702042958204393,0.9608253282113305,0.06633173530053826,0.14899162487182116
76,0.877109499084799,0.01994974700195616,0.3344429471058997,0.9918037531907727,0.0347083076945836,0.10537034308681438,0.11330001404569334,0.9642065168206563,0.0576243824704247,0.13832828572938619
77,0.8713528182086832,0.010832792423403048,0.3199555168138292,0.983953659210508,0.035560198280564254,0.09048304924556459,0.12877169054531362,0.9672261084808834,0.07873580281963066,0.10279517421754941
78,0.869525875105533,0.003505025364633373,0.3101204603732088,0.9691948238546458,0.039503279013109745,0.07751198432364606,0.14195307537565008,0.9699322864662276,0.015993622894281988,0.07250691695216831
79,0.8660848283036843,0.0004175460109312688,0.2978437891099718,0.9465781200361767,0.04069203147790569,0.0884388361829303,0.15355179553049433,0.9723646220586882,0.027989649509836543,0.0657383714617128
80,0.8609543680913158,0.0,0.28441397816614916,0.9167107586764621,0.039357635801096115,0.08805500957216784,0.1651517724352359,0.9745722221266641,0.044876956536538344,0.0443936755510747
81,0.852889729676922,0.003518336539009243,0.2710169067712638,0.885968549465852,0.03191330827925079,0.07685568115060554,0.17586860538730997,0.9766222519243242,0.04916016291459359,0.03188414428150546
82,0.841859547169919,0.010292517973174676,0.2573745885720726,0.8581376098476889,0.017741707926486244,0.06834309692839674,0.1853697569428788,0.9785408644526884,0.029362736830649667,0.019446144270774474
83,0.8328176988613681,0.019785367344344523,0.24421646791438897,0.8309606539107475,0.005693978567148839,0.06361743225427734,0.1936846801938323,0.9803411215493416,0.05486817042445998,0.02139044323022409
84,0.8300413133745007,0.027066778024620482,0.23931441003038922,0.8095186272868431,0.0,0.05522344947826362,0.19920802118089745,0.9819928720248231,0.17495563295588962,0.048802243767575665
85,0.8291046110020158,0.03796891374170935,0.22809967541855672,0.7950709536987606,0.008937688393912934,0.07759856680309427,0.20386858088721174,0.9834823608968782,0.07563378554610489,0.07686992304227555
86,0.8336702549916779,0.051711901920023694,0.22089427633803513,0.781090326483043,0.022543042660631164,0.09006435037088156,0.20831728669823874,0.9848124692455337,0.1512819516201049,0.08976495625992512
87,0.8336999564551166,0.0651397797248965,0.21597440957851546,0.7681174022432531,0.025338428139128122,0.07744675685283194,0.21061325712584283,0.986005998621806,0.16148467575091718,0.0943300390025954
88,0.8340887519662659,0.07827163978357281,0.22042764782187302,0.7563768421336109,0.030467986757939044,0.0519988511030873,0.2092866365088444,0.987132282463259,0.20967897304411026,0.04678549842866093
89,0.8300882177667892,0.0958531223335215,0.21085720608721834,0.743056413096943,0.044768955545557106,0.09188933232553533,0.20922533664445986,0.9882022493225363,0.023189660689896283,0.06551935292642708
90,0.8230617510218394,0.10815751858148609,0.18817073740065543,0.7274065251725812,0.050797333973550456,0.09823246435946216,0.2179299792924619,0.9892083852308439,0.06729079922953544,0.06559597309413714
91,0.8109293888614386,0.10967441493563357,0.15309972483448717,0.7161167778111797,0.05314188801976429,0.14864131927775337,0.23766593723961582,0.9900753531199484,0.0005584535373082257,0.1443931794663318
92,0.7927664680110222,0.10420584086755366,0.11257907643397351,0.7099779754042477,0.058805062430134336,0.16644270053409851,0.26628881051514713,0.9907864479321457,0.0,0.16858377176561057
93,0.7733128076879763,0.09465752239289514,0.07389412135057417,0.7034520703476845,0.07093159310404301,0.18145112469298616,0.29860556591405807,0.9912709010035174,0.10928099891870804,0.20728431301681988
94,0.7537792512531808,0.08846975068845597,0.04622404572038954,0.6968451616143289,0.08132528795845394,0.13284940483849675,0.3274588366507591,0.9916729537162474,0.012197142503736914,0.16506578735743915
95,0.7345085791108009,0.08981365777826715,0.021389298975674414,0.6811513110103236,0.09744638724111135,0.13720983598824138,0.3502724249542786,0.9919806839694838,0.04912418250570061,0.1571510398481911
96,0.7216685007688343,0.09239371119022792,0.004994340238969293,0.6728461918805222,0.11495181993441746,0.12258147785568202,0.3681372140898133,0.9922635037801204,0.13195533895116945,0.12350415829103323
97,0.7178495262324449,0.0964054021464552,0.004274369975083606,0.6677971783319409,0.12653946619528283,0.11382447862468428,0.3771936608687778,0.9925759898651241,0.14964574295075278,0.08258737056559917
98,0.7170137580694188,0.10931281271994985,0.01015309777314725,0.6568580789078723,0.12932081356163325,0.13169836686949404,0.37705440552578295,0.9929539772785776,0.1528159651386092,0.0414651860641517
99,0.7181358375860614,0.1190431231332275,0.013444321879431769,0.656978047970891,0.13352459031008534,0.10545358037965466,0.37307799539540804,0.9933966781057212,0.07511912387732733,0.03130641368900852
100,0.721607279415761,0.11455646472107198,0.010871329123261334,0.6837460431901753,0.14572886770995777,0.06739661429105681,0.3722748822033986,0.9938100586511045,0.03759751118455414,0.06466682210779728
