Frame,Center of Mass distance,Symmetry,Grounding,Arm fold,Leg fold,Kinetic Energy,Potential energy,Bone length coherence,Torque,Center velocity
1,0.3291904548091446,0.7618304208853129,0.4838680079434394,0.7935866323377052,0.10560131796101876,0.39317649561472356,0.49556759039714743,0.7992618376926488,0.05035864079841292,0.3470072502561371
2,0.37830502534679833,0.7583842131256849,0.5365618291324028,0.809727602291226,0.155139992098737,0.39317649561472356,0.49556759039714743,0.7561164134525039,0.05035864079841292,0.3470072502561371
3,0.43334278497482387,0.7567218824546689,0.5944017828926809,0.8202113294365396,0.20790270709277225,0.42123981930111887,0.4774942082725927,0.7091607418505473,0.03311748515963232,0.39108834589312935
4,0.4757059959151717,0.7744414168790783,0.6346647573295108,0.8273992925607823,0.2566510109449875,0.4338549723685145,0.46629856420682625,0.6603264246687427,0.1335423011381331,0.44096723449799885
5,0.5130727216478512,0.7956904883584305,0.669266330935872,0.8392375937460819,0.30857635626974356,0.41685550266673677,0.46000083428396177,0.6115952551465088,0.04317288787870741,0.402314609807535
6,0.554029532751802,0.8168616722372628,0.7078279376144497,0.8513957727385703,0.3760013925921343,0.4454445065872674,0.4520939446069143,0.561449757076922,0.02884710259168156,0.4271121738534106
7,0.5861736815112213,0.8565698450020681,0.7346300746158553,0.8636768986864322,0.44483265816121775,0.4587067787678996,0.446418766921264,0.5108469717208871,0.2822986139473286,0.4625298508218683
8,0.6295833993508876,0.8845372271203799,0.7740202588552382,0.8825182173966052,0.5038094520965969,0.41952751235136543,0.44084070584076757,0.4602418015508553,0.18590854648223526,0.4119931322246432
9,0.6630063067142138,0.9229684644747557,0.8033430619803514,0.8925561938236543,0.5736700089456243,0.39765697020553303,0.4337568745052509,0.40983944443283027,0.5747417770963392,0.3897631436758842
10,0.6852104977019854,0.9612526805104988,0.824745798961029,0.9072124328961308,0.6617358786417641,0.32085689579148186,0.43118292953256304,0.36172767752713303,0.5513910028856726,0.3326054581674908
11,0.7221917374485242,0.9824220242550162,0.8614706707963254,0.9057630943187741,0.7308122015687895,0.2565613645884533,0.4267268312639629,0.31475060674226596,0.04658119705750905,0.27944585977886294
12,0.7619565648189673,0.9939552426936296,0.9015327779456868,0.9109481346802554,0.7978951544480398,0.259828578453072,0.41259755414391813,0.2691449604584218,0.731477204843735,0.23980013185481236
13,0.788366673327597,0.9999999436679241,0.9282885189703667,0.9300688353972252,0.8096294255900097,0.16283834520333904,0.40127087234851183,0.22591780763766134,0.031939398137216274,0.1212334703652599
14,0.8256579288950182,0.9894627982105848,0.9687518148596431,0.9325120945111981,0.8142052713850406,0.16761342226205972,0.3942006205278194,0.18570995402835105,0.2180548011509918,0.08816675483447665
15,0.8634194620688098,0.9581954256549626,0.9881950041174704,0.9313772165516045,0.7944479513376246,0.20022442778523997,0.3836750087163152,0.1494210174742453,0.3410732771814795,0.11971578098061487
16,0.8983300477898961,0.9173733779493811,0.9488594033801159,0.9241429474074132,0.7598565694003494,0.27704115849629185,0.3761100112351334,0.11679287249940264,0.5363085472109663,0.17127629725727753
17,0.9291074583997161,0.8606109212633257,0.9138107908921387,0.9268211738185855,0.7016039555490277,0.3766610192561429,0.36906763869803966,0.08775272074690686,0.3056014052980592,0.2635686591630186
18,0.961284957578016,0.7822935392596898,0.8734239119057029,0.9218662599065534,0.6517584851625424,0.44918277693052217,0.3600460108962214,0.06272895799216908,0.6541123359262572,0.3851646572049979
19,0.9794986075906233,0.6963329724311977,0.8469951260581762,0.9209318003671765,0.6022695585072491,0.5677612873519107,0.35482562852053384,0.04143654451579888,0.8332131631990178,0.49367231658854344
20,0.9982155938765844,0.5852025599536295,0.8137379441067965,0.9249819111054179,0.5854702846775097,0.7195900582053607,0.3479347056985709,0.02396717266680939,0.5144165791516339,0.6869013107440386
21,0.9999999802530369,0.46252499341766545,0.7955059627589977,0.9288808209112254,0.5722786076958021,0.8287436324859083,0.34129073475938226,0.010809027728289096,0.6022054129310305,0.806386517274006
22,0.9777993016983794,0.3310581821891027,0.8039134595765586,0.9115884714300307,0.5447666835341879,0.9519764057385464,0.34614243328784455,0.0027606955395335455,0.11062750364906931,0.9142723558613073
23,0.9352870848444476,0.21100644336223326,0.8383987703235947,0.9040225543691097,0.4981369919363596,0.9958454503107232,0.36270397891123063,0.0,0.031891829010274535,0.9600853041987669
24,0.8673326108888432,0.1190132904198729,0.902076975460919,0.8815580634861626,0.46048093733574325,0.9999999965005298,0.3874658042649624,0.002670493439632639,0.4417623949872614,0.9999999875197573
25,0.8027591961354433,0.06152063882568144,0.9673528397026357,0.869609813272629,0.41941187584516326,0.9216351789174069,0.41671937532699777,0.009810276682682384,0.11818151741124722,0.9404967273017434
26,0.7039370094838937,0.03505190105246451,0.9209197461964241,0.8549130622999294,0.3675856488661111,0.9569900075068059,0.45821841375085937,0.02088758215433376,0.7069735615819671,0.8807686028018108
27,0.6197180809513272,0.015183435420750013,0.8216640144364588,0.8362602584624332,0.33163326580055624,0.8294672004970028,0.5073957016300147,0.03539233679120877,0.5473949806868155,0.7731370766786754
28,0.5495641487816807,0.00055632326448534,0.7362348295755134,0.8159361870614004,0.3033576577977278,0.7330544136993403,0.5496180735110672,0.05280197683092249,0.186402873498041,0.7096065993985222
29,0.48107210215432233,0.0,0.6472533504025079,0.7851715391628099,0.25670765119315686,0.6973266355278879,0.5875492595378682,0.07245945080775819,0.3908118430364781,0.6803866538546886
30,0.41338351944972157,0.0025859863981099224,0.5587129059258994,0.7491909307189494,0.2268594568926556,0.6249971844770578,0.6250267187273086,0.0939611073826896,0.38765785800820246,0.6320723523910265
31,0.3529473498207117,0.02359971313709112,0.48064594381865544,0.6883351529090126,0.19732662534492532,0.5560684225329067,0.6663888421940387,0.11694262119994704,0.17862876981662384,0.5979467569007882
32,0.299186651473568,0.031176533918525047,0.4053059734727921,0.6353495921152552,0.16362010773240918,0.5164995894926079,0.7104454244866685,0.1407858151514921,0.36306156538109347,0.5121819840607057
33,0.25885669706680964,0.027009096414658235,0.34656157108389035,0.5896125754469387,0.13198430290093097,0.4449244574104474,0.7460406433270309,0.16532043723431064,0.3697342617150982,0.4667989651680641
34,0.2307568868283829,0.019465425426485987,0.30153454858994944,0.5556979096532577,0.10173291541676469,0.36515076106482547,0.771856801193605,0.19010121149176828,0.3518776878658381,0.37205809039398485
35,0.2088941655923497,0.025817169463635565,0.26956608312148084,0.5306184943420664,0.08554363819391463,0.2906432004207354,0.7951975449788516,0.21498362598060505,0.09481504657731973,0.31330515695955935
36,0.1886776024935825,0.03254896870224241,0.23904844713694706,0.4985196110507847,0.0688218218439629,0.2721876570254368,0.8184230000477369,0.23985489697773676,0.30601633909274145,0.28650310422857683
37,0.1829026376197883,0.03373281156605476,0.2293042003546903,0.45901466108169703,0.0603732683553661,0.20987014571341778,0.8356430934988386,0.2645917941965119,0.23543540449279496,0.22559053440403026
38,0.173549903117636,0.04614392147335766,0.21491216837464766,0.4281939065734555,0.05378526386553143,0.15305999397553396,0.8510429883481978,0.2889964299683764,0.1938289451625452,0.11408281509214817
39,0.16633137177461718,0.05877933289869326,0.2058054568960941,0.40041817096407867,0.05120368395295651,0.12098819631024733,0.8673578314960221,0.31316260882346125,0.1939025024451633,0.06612538593660373
40,0.15831374992664743,0.07471682472663174,0.19811955397536027,0.3705775093502323,0.04695116809992209,0.09690248369886577,0.8775138875972618,0.33724602931340336,0.05635704925697863,0.08031378246026474
41,0.15786595764368155,0.09159348966251932,0.19837118391971456,0.3518131652929666,0.03864176551035665,0.07892853811813677,0.8831115871393138,0.36091050739763475,0.0,0.05912591824352469
42,0.144721052103551,0.1122210610079459,0.180638641615484,0.31956255205537293,0.03343093378988357,0.0930734433219279,0.8910842556379961,0.3844536630764875,0.2542652654770446,0.02054727718435733
43,0.1407068774810925,0.123962729929137,0.17729976879635764,0.29104689683985213,0.03459836605749376,0.053286858486737074,0.8969585897269166,0.40764501693378263,0.1305232241864718,0.03332433635063054
44,0.12174820378839328,0.14600704807515483,0.15498548733179307,0.2652768320188411,0.037526633257817556,0.08602415422829018,0.9035379723140482,0.4304897184705125,0.10070929617113576,0.0321330362453217
45,0.10897512346052188,0.16439994110188125,0.13936259738099077,0.2375104388039966,0.03530652659530798,0.06893525416434756,0.9141320099654062,0.45301741881519936,0.1105702585828462,0.01842738005730201
46,0.08809346030169027,0.18966383740673715,0.11484259659942854,0.20692139562114906,0.03550730025377804,0.11241555876784412,0.9243221559594266,0.47540770502946655,0.009792655821468437,0.050431219701117164
47,0.05911301244379556,0.22164182981374556,0.07692343773973125,0.1744349232634168,0.03065542824165095,0.13179855409651367,0.9423388005202632,0.49754257816298525,0.28017168664872805,0.06352049124486758
48,0.042972434618165474,0.24679226736037485,0.057401102403962234,0.1407874403565802,0.028608252924887667,0.08922695693405074,0.9599284206029607,0.5192939787530627,0.0038221659056834503,0.026057338829055914
49,0.024477646777942064,0.2743357450084948,0.03238548342397454,0.10302686996921438,0.015070767281801102,0.10746122735179307,0.9729708047201686,0.5408203166527328,0.1006758342144308,0.03409408892173321
50,0.010294149462907506,0.2999011875730722,0.014184068837313043,0.06868848289780174,0.005260582103056584,0.09100978112054511,0.985393462464059,0.5618637431123344,0.019153349668675594,0.040714634368715634
51,0.0,0.32451526100961603,0.0,0.04362383887888284,0.0,0.09304158838382896,0.9960216934841053,0.5823162042375062,0.010329343883270834,0.05866076845023012
52,0.004867778358181296,0.34412594123275636,0.010538436736781842,0.02029621306928723,0.005848483794730047,0.09587950346631542,0.9999998691728623,0.6023181250400869,0.0477073259191476,0.036720353356131843
53,0.002086828102470685,0.36752907009561164,0.009627438087914428,0.0078020278767278635,0.0020179075515207932,0.09319868919821607,0.9992468858164053,0.6216622662616438,0.08889660949528663,0.0612351492655744
54,0.004058727577928465,0.3915094219647882,0.01882967069502012,0.0,0.007848574683887638,0.13661985194930407,0.9998475622044162,0.6402364784182044,0.0022597090461309575,0.10552568503669678
55,0.026864263035908043,0.4000999719157806,0.0541692132488139,0.009331813863393434,0.01546156367710928,0.13884049424866432,0.9909281651487757,0.657968259485142,0.011195088429051687,0.07909515296687677
56,0.04650467304942551,0.41273374228585785,0.08728393225989863,0.024054027049431815,0.03127128130927767,0.1684412709961321,0.9741381904626741,0.6749291732750814,0.17329950515260023,0.12713395606792877
57,0.07479676973730685,0.41818283732598593,0.13301671943507584,0.053754115267188776,0.048176432464703156,0.22600882545445092,0.9527339875073646,0.690922058137967,0.010637663858488376,0.17753001715818867
58,0.10591863608756229,0.4236262664687528,0.1844311033364727,0.0891617518348119,0.06630191389225638,0.2401035231870375,0.924104179906998,0.706092293639624,0.02314113818454686,0.16557765371204147
59,0.1361251365480724,0.43525899368786924,0.23477401309303755,0.11074079566749064,0.08615521781591821,0.2694635064212465,0.8936473100935757,0.7204761305733385,0.002612990385300848,0.2057474364586884
60,0.1741155317647598,0.44248896903643514,0.29434208052755984,0.15118912547673205,0.10362279819001777,0.28596469898707927,0.8577278958927346,0.7341861832372348,0.09605659975743124,0.20371054095387767
61,0.22033682553015285,0.4445941820405433,0.36372535329697775,0.18946663807323808,0.1215340359844869,0.3303927620928276,0.8109665418286784,0.7471917315067806,0.015132406006546285,0.24133332857370363
62,0.26414203223992855,0.453313425632668,0.4340654748569641,0.23293320373314108,0.15586087084766612,0.349811213032118,0.7602563745235786,0.7595526456754541,0.029625418224458095,0.2443697026018055
63,0.28991803570235203,0.47258279172186957,0.4791629100685218,0.2867686650177517,0.17786688834230605,0.3720345001286529,0.7153224372946382,0.7712764782264027,0.052237314778443254,0.3051899274352795
64,0.34100636881725,0.4738935155345795,0.555062361310186,0.3353469958782886,0.20028281059839875,0.3927979706369606,0.6658389439501403,0.7824539557214062,0.06733704149123959,0.2689497029637494
65,0.3822525132128791,0.4822924149059705,0.6163792841497255,0.39041645527846064,0.22233890031906794,0.43511484053343563,0.6107550486082146,0.7930472307390497,0.01957127579551876,0.3540810834950259
66,0.4189165134764583,0.49541515176847906,0.6720566395596035,0.4381058755328529,0.2450160747934667,0.4517168299060564,0.5603908936393983,0.80317310964383,0.013573035236528648,0.36978218942233226
67,0.4357484803441409,0.5146653783765263,0.7032341900836726,0.4819016212762101,0.26892783835170037,0.449643455739791,0.5168169548426536,0.812894732635331,0.16967813565475817,0.3849157672139157
68,0.47263082961253405,0.515663933193034,0.7585032608983721,0.5190275761050976,0.30167725669721973,0.49221079304435217,0.472917259346367,0.8222092269460212,0.13500173381771055,0.3919559468452371
69,0.5073910493605459,0.5193374211819449,0.808515394632641,0.5462313900812775,0.32435640208825167,0.5322842600245633,0.4207315289086949,0.8312608942891305,0.1142659641081051,0.4101875448684379
70,0.48444298912678174,0.5646941969888652,0.7853736272773156,0.585362673479878,0.34161270867294563,0.5863180611598712,0.38562998087508665,0.8395954162417917,0.020182051404390385,0.585633498998999
71,0.48835886552945923,0.592515176114004,0.7915928714985239,0.6026416193035775,0.34892704833281113,0.5891119272962978,0.36400731127396646,0.8475298445619999,0.01728685350330029,0.5220060074394108
72,0.472963157939141,0.6308392573685766,0.774963461770302,0.6147486739092548,0.35614123741791387,0.5995750616999135,0.3417395807818266,0.8552481044227029,0.02263400315143724,0.5127948495536047
73,0.4362316225694813,0.687346945932988,0.7331011907240182,0.6160236038620788,0.38733425272885574,0.6248635610581592,0.330313509738032,0.8627191841076466,0.02957735465789122,0.5935325100065826
74,0.4099636314544156,0.734262438982625,0.7069922641983837,0.6224215385309063,0.435852276100674,0.6378628213096603,0.3187271553465901,0.8702417097611229,0.058097256585337195,0.5311996961307744
75,0.3878665052079625,0.7808542377366577,0.6826916890949769,0.6243573498667065,0.495643404494202,0.6376378469129519,0.29895389926952315,0.8778357787431765,0.20762423145390385,0.5410731022093282
76,0.36076379773433515,0.8300572549969261,0.6538421249324546,0.6130863748069382,0.574947372209613,0.6092000544679405,0.28209478980286856,0.8857391451362734,0.24188019310524891,0.4867304241800481
77,0.3272187950385891,0.8770163700525155,0.6214036955115132,0.6041394044897526,0.7023962575883985,0.5866178868681552,0.2692047636535924,0.8941267175197679,0.43067507883312817,0.44303508473775616
78,0.28433739774680666,0.9244150679091125,0.5751469067168545,0.600898587437625,0.8314987124041437,0.5278737788620163,0.2555307865748095,0.9028619731394504,0.9999999994517353,0.4044016349737832
79,0.27282927750264035,0.9383665122755221,0.5659834283961913,0.6114470476241992,0.9281312991834585,0.3722769588354074,0.2312404577007253,0.9119072226971302,0.8952348981951489,0.2177891793528107
80,0.2632381739422941,0.9488589766451163,0.558554613770016,0.6247443076457908,0.9889261978063074,0.23318543057951316,0.20063771824181018,0.921232450126718,0.5002240779314093,0.14463233324229227
81,0.27669022072028593,0.9442778775436713,0.5762167433566274,0.6460208890215143,0.9974866163631594,0.15840728607158178,0.17623081373483784,0.9306379242100895,0.7973292473378764,0.12507528697558648
82,0.34010055998557837,0.8915946488998224,0.6507215861214444,0.6925087589586285,0.987131064534012,0.28330758938905937,0.13838605150389324,0.9397250748689967,0.967348284147398,0.21971211640467997
83,0.3686181422910203,0.8628284546012129,0.683137090471534,0.7195407539255719,0.9412231459104539,0.15105482576814092,0.0994647656134394,0.948525568810701,0.07635026474129532,0.12254445841299347
84,0.408703782267052,0.8289962924239713,0.7234044315885264,0.7515141383321764,0.8678999320093347,0.1912933967436302,0.07776032337699981,0.9567826630364153,0.11415493068276862,0.12908146889939978
85,0.46518331520796363,0.7827509997418007,0.783578921730595,0.7680914750306419,0.8118808070143823,0.22648868425115026,0.058675823433376004,0.964404711101504,0.3563001040750171,0.17353041632267466
86,0.5128592488867231,0.7419351827564681,0.8314388279798504,0.7838926572846197,0.7521846565811864,0.17226377816776345,0.038541962818857786,0.9713684833500543,0.04712887126526327,0.08884873300617435
87,0.5545029920313347,0.7081210708777843,0.871160879911571,0.7931747639569116,0.6931291621926055,0.16804179344614031,0.023653459403683602,0.9776168645710803,0.3388868986213446,0.10112111964961525
88,0.5821063904713618,0.6850743860818315,0.8975116113511955,0.8017304999107162,0.6678170463380181,0.11391877105878463,0.018292796172322778,0.9831084370306638,0.29304080458266457,0.06003280178549469
89,0.6017785607520928,0.6710870960845006,0.9158014512111433,0.8031816180992671,0.66859323685396,0.07630245599887604,0.020704647700085333,0.9878364285027111,0.2356719585263113,0.04349460029144306
90,0.6394357836040138,0.6503439887248007,0.9538712605364384,0.7990097731907663,0.6892874552348788,0.1322665304465872,0.023461433930139823,0.991701624960126,0.0865265602560408,0.10016831305069533
91,0.6860679731237637,0.6265154704626529,0.9964982464461543,0.7811132809916033,0.7237463595500575,0.16231630859462085,0.021523768789323036,0.994765351846067,0.044698080876596546,0.10115716895440154
92,0.7338601133510861,0.6015313842925453,0.9460505363656926,0.74645959788993,0.7533403723471739,0.16507074693742474,0.016597004807592557,0.9972417770891653,0.2599889268454427,0.10042114780061284
93,0.7957889233083401,0.5715924409443913,0.8820175384651812,0.7129155636343626,0.7942954771231319,0.22843614365672987,0.009448664196453333,0.9988608699326678,0.3894620047521623,0.1695878221322709
94,0.840287982761836,0.5446940717653667,0.8373720546504267,0.6958139896791665,0.8369365879452858,0.17178214737502867,0.0027929515442272476,0.9997816310458281,0.12286235725675826,0.09550424339465031
95,0.8900776941496517,0.5255460086129682,0.7904750013769662,0.67069827152768,0.8708447656554678,0.21466430629031677,0.0,0.9999806917446877,0.03030607294645696,0.18111463478433826
96,0.9323241008465898,0.5056835152339135,0.7486553054622628,0.6614297670002466,0.915925932043265,0.22241474198690414,0.0012337414683377271,0.9995543547643674,0.44030146896542227,0.17994307884245314
97,0.9569997180273083,0.4917801265793755,0.7267050959562349,0.6626002925067943,0.9546458145395615,0.15818116445070712,0.005030653110232635,0.9985550605480958,0.021511797120966222,0.12369901337696715
98,0.9861471309341306,0.474801415860182,0.6992321277148903,0.6646729131497086,0.9909259097636125,0.17222917358094358,0.00834924448033943,0.9971313271285898,0.3037166978622375,0.11136182402660574
99,0.9944980776926626,0.4701866985914228,0.6959663967884816,0.669799354134537,0.9999994301242336,0.12462656837770235,0.01557090859795537,0.9952638622442971,0.03304449025926236,0.10097521059171743
100,0.9958840811810921,0.47531253837864684,0.7027653178012416,0.6831964893296796,0.9899756347647453,0.13172345691018697,0.030482312658699193,0.9928809532042753,0.12685546050576416,0.1261880710105105
