Frame,Center of Mass distance,Symmetry,Grounding,Arm fold,Leg fold,Kinetic Energy,Potential energy,Bone length coherence,Torque,Center velocity
1,0.06143712882563253,0.4881592007803022,0.5138127532256912,0.03630613707876463,0.012317826252650335,0.1864602117522397,0.9030144927222092,0.9999965469397142,0.08304946712285183,0.16612486941211707
2,0.059961463561333,0.5012367048608071,0.5130905817919855,0.03739866743662937,0.011809280443376133,0.1864602117522397,0.9030144927222092,0.9986746406012503,0.08304946712285183,0.16612486941211707
3,0.05529792763891744,0.5222066027003252,0.5093852356521619,0.036714582149841184,0.016828851074451784,0.23123541296422365,0.9047687970174901,0.9975812440326144,0.057097877902912944,0.27853895118672245
4,0.04936061746663958,0.5514752502610284,0.5028752340458811,0.03341374089634095,0.012213285256541737,0.25255474752633617,0.9127110146812264,0.9964570826298282,0.021130692842248982,0.31709637804050117
5,0.04299306168867327,0.5868445104611731,0.49591939516452477,0.030359931316649883,0.008026588900098058,0.26607987767864233,0.9246099557775744,0.9956046028690877,0.033085315328633715,0.31338826526242475
6,0.03691995521993135,0.6227642975659801,0.48877429783896736,0.026625372256154845,0.0041620392741555864,0.2662044226078151,0.937214421602407,0.9940075597120909,0.12674473753335233,0.34448694665589175
7,0.03154608765946016,0.6595942189306184,0.4825584222077946,0.02172653677894667,0.0013018341490337781,0.24573838065826528,0.9494724407407001,0.992676437752822,0.10200608521962592,0.29316719723198187
8,0.027868207330668558,0.694798320152963,0.4781372359563454,0.017108598258824884,0.0,0.23119324235544336,0.9590394334759179,0.9914610597794696,0.07784355621598618,0.28411933521012284
9,0.024158209078918507,0.7291569191635465,0.4739987151856064,0.01410500425737,0.0007651685315377266,0.22011737755648708,0.9662549962871447,0.9904769543048159,0.04625220559835951,0.26785098874565394
10,0.021915320433397133,0.7595556048305149,0.47152232674749867,0.01063135189086157,0.0020300742299843065,0.21378958552735056,0.9716520064940737,0.9896036121495843,0.12933992481709508,0.25743555742263735
11,0.018945106895698064,0.7905518878457564,0.46819092932698175,0.008203682658250257,0.004105119026052868,0.193736992642076,0.9766563875051036,0.9887021080832763,0.03510993458540266,0.2485483380771701
12,0.018977842284417765,0.8140393403724,0.4681203230642922,0.005898911320549283,0.0054462169936842116,0.18720803536262706,0.978764563794543,0.9877644054681407,0.11371241450900642,0.21177705532266008
13,0.01917210902250951,0.8376019354719598,0.468219219918048,0.003588154286432152,0.007619214202458623,0.1743850627769844,0.9769074130517688,0.9869092449965962,0.048884014803397796,0.2098976395125089
14,0.018112587723202737,0.8631785990958678,0.003940085916687713,0.0018697394669483333,0.007585761440255119,0.17134158550995268,0.97721409334791,0.9861915548357434,0.11769278181579487,0.22351897762300837
15,0.017876316008604804,0.8841617763093395,0.004575862854162703,0.0006627969879479116,0.007898926951120868,0.14741011245928112,0.9783258678138452,0.9854569134422531,0.06576708763444411,0.18675642301980064
16,0.01616903660056525,0.9065464334885905,0.006655581942461833,0.0012285745899822855,0.008272359883873594,0.14041791711288715,0.9798173389602822,0.9847901888994075,0.10613850162189926,0.18091426413710363
17,0.014932183847140668,0.9281324914549645,0.008105574913754812,0.0,0.009753795004857053,0.12946547621955204,0.982615271951641,0.9842319982904174,0.0792818087307703,0.18529380124345726
18,0.01292830756411305,0.9481358216984367,0.010497171721981169,0.0006593912189574486,0.009178485599194415,0.11327491825467716,0.9857377154981546,0.9838120146876904,0.11147103305252025,0.15412565046629564
19,0.011504531030707397,0.9663449791845716,0.012510011211853135,0.0024097370032240234,0.008702441787122626,0.09660698766874352,0.9891140925194437,0.983395068976244,0.06876372196721067,0.1499018531925764
20,0.008932176582409487,0.9842351760179964,0.01583207193588497,0.0034600576969078495,0.007923465534603302,0.08779094870070056,0.9937007839557744,0.9829986814269485,0.15739574969197384,0.1385910203516749
21,0.007865250645423117,0.9937946186375531,0.017084150984690155,0.005611003632620975,0.00826051451367959,0.053050136169132005,0.9972310447167915,0.9825433680095119,0.19717751815983842,0.06564985363957432
22,0.006631389944813818,0.9991635112249596,0.01851671278443378,0.008031105346942605,0.00845783752316226,0.019066793101217405,0.9986177944140421,0.9821926850934399,0.0780337883605227,0.03796701771148097
23,0.006415298954562727,0.9999999832645762,0.0181640821875738,0.010263471165015475,0.010906335041678128,0.010993318841823056,0.9991345852591998,0.9819451167647848,0.08902831264855982,0.037781887810577626
24,0.005446690124882012,0.9973079350731547,0.01806598676699283,0.011935206364734849,0.01300698662203564,0.00826197572560125,0.9986133631563714,0.9818043054980156,0.024246610721187167,0.05947438658009662
25,0.004427864143250092,0.9904100534341687,0.01843172079625884,0.013484419628745048,0.012089859176487763,0.025434368955120735,0.998973418708339,0.9817254659830011,0.03511094851625837,0.06338786874272288
26,0.003780011315650078,0.9805757203041835,0.018663214768765635,0.014574055658610606,0.009048401483302854,0.04326341323931162,0.9996463356714658,0.9817367969102528,0.046669192913977434,0.09026839354400389
27,0.0017815214921223918,0.9704152395522843,0.019053512724835672,0.016680839899340726,0.016468207206755438,0.042425488838321826,0.9999999643925926,0.9817234378833745,0.08784994777932144,0.08009004835961238
28,0.0009683912346142115,0.9573413938363045,0.017767733411035092,0.018344917559264238,0.029985513457413647,0.0636934635753063,0.9986760463051023,0.9815195208492159,0.10040999288796905,0.12594506743251177
29,0.0,0.9408174088004785,0.015763589471108345,0.019548087517015447,0.0525954560622454,0.11626293772216632,0.9943975122188793,0.9808748019578764,0.06532946094030179,0.23991623559171554
30,0.0001071614334127764,0.9171635844938093,0.011741597083968224,0.02654471935079503,0.08075477919264892,0.1611499438720804,0.9863518692601976,0.9796485785657083,0.20141162149851613,0.31155093590280036
31,0.002982174405662226,0.8860636651221175,0.0059538470547105486,0.03355698507210722,0.10325344429323757,0.20652501010564658,0.9742234312161232,0.9777278212082616,0.06462278991291086,0.3349107011384819
32,0.006913793692013252,0.8514630073260273,0.0,0.03953351349727092,0.11884335681083634,0.22863883530822587,0.9607966473688662,0.9750684670528257,0.0792762454327848,0.31798159343050836
33,0.012755056090865427,0.8090334582845226,0.4778709197123986,0.0478071183780212,0.1295069558488256,0.2741981933623215,0.9465208221764801,0.9715448410374058,0.2652594087532906,0.32652879884863517
34,0.020955850750353684,0.7595154800565694,0.4872881201598374,0.060995750581678866,0.13946454562794708,0.36022672772667885,0.9279541845625214,0.967040916446151,0.1401868516970282,0.3931018121006587
35,0.029359474948531295,0.7094722699682345,0.4976349029465897,0.08409179643667934,0.15535121284818007,0.43244528564107904,0.9048144382105766,0.9615058651877443,0.32794183060131465,0.4538039715709476
36,0.04096302416961132,0.6554477916669685,0.5117218140729465,0.11368051566942107,0.17802436864769558,0.5368890848558802,0.8756407779550982,0.95485826216385,0.20824670548383725,0.544042067698473
37,0.05403037830892561,0.601001823747301,0.5272992706892351,0.14675157171863806,0.20880006911735094,0.6057159763849633,0.8412551369469007,0.9470897568273002,0.43360934274607216,0.5609151192958274
38,0.07154098746482673,0.5360459874376531,0.5463477343850703,0.18538958242391695,0.24349526939707586,0.7114868008672732,0.8035423578969589,0.9382000266508248,0.3782871071336406,0.6075022252663455
39,0.09293903783737,0.46051801526124647,0.5674837311426576,0.227121344745785,0.2803173035331639,0.7922178816544271,0.7633352788160418,0.9282087443857174,0.40848833291992326,0.6280812502486763
40,0.12084364069481222,0.3699132215479774,0.591868537632111,0.2704968278443321,0.3137984876732675,0.8824983765580826,0.72166303108186,0.9172887018174667,0.4125582306667689,0.6676147397908571
41,0.15328188924323596,0.26570925146142965,0.6179742215058999,0.3187273390078575,0.34397583920485225,0.9872251272958801,0.6769181163703151,0.9055564471213772,0.01605118220208951,0.7712209719745193
42,0.18253792966703866,0.16303290826926434,0.6420580096949426,0.37088968809354983,0.3879689948326125,0.9999999974345096,0.6332315065671918,0.8932025970636697,0.2575838646466782,0.811336157295679
43,0.20851493307007152,0.07478726072966957,0.6642212834958372,0.4269644581758902,0.44407439161995543,0.9442519377663111,0.5936179256311344,0.8805141805912535,0.5589710006661484,0.8349546655079662
44,0.23023360824136263,0.020045401857720958,0.6833036478149612,0.4902213191277434,0.5024766305693571,0.8252882862480689,0.5588858799655656,0.8677441585917807,0.794315723970679,0.768523512509982
45,0.2444831388245243,0.01552973206390727,0.695781761986462,0.546577548079176,0.5422868430546138,0.6276137397277669,0.5332107323725627,0.8550485219056131,0.18043614011730072,0.543245337603175
46,0.2647090930481144,0.025545597156374954,0.7101437249783696,0.6007533430756605,0.5716551715691275,0.5587983439440476,0.5099782752886676,0.8423895780943925,0.2660366624953563,0.424391131786286
47,0.2849216393308421,0.04233525160788564,0.7236675892278538,0.6470517822883145,0.5969309032192748,0.48353352839082947,0.48307120526428365,0.8297886988110543,0.5334498407163633,0.3262026344633362
48,0.300468661996634,0.07366033892081351,0.7336156189385431,0.689621103543211,0.6157023868335557,0.3597512154837282,0.4595442845301822,0.8171883813807369,0.18088058054097333,0.1162831353764899
49,0.312895743786846,0.11031737940896517,0.7415376255836369,0.7253677760075736,0.6334158084071927,0.3173764000715151,0.44049191484620703,0.8045734721926289,0.14397358593047435,0.13455518508894088
50,0.3278893457156024,0.14510714141558625,0.7502831048157161,0.7555810558682283,0.6538072385252672,0.36852853093747456,0.4209637213572791,0.7918736712441848,0.22950310789004108,0.344283861092844
51,0.340330304781716,0.1819130144766989,0.7570813418632715,0.7815225774682707,0.6710536112066883,0.45224337706866957,0.4011523620631712,0.7791173737932638,0.3576365853011455,0.5368494342258546
52,0.35593988073846383,0.2180835911521654,0.7646291593591065,0.8021930353924082,0.6871408289497382,0.5715410082213825,0.38020304512380715,0.766223691392733,0.2272073069832896,0.7413437158900752
53,0.36530200690600817,0.2684144101967535,0.76837217285814,0.8200721461040572,0.7012726144153987,0.6514494336799664,0.36030415678910305,0.7531614855898724,0.013238945846976545,0.8921087978817841
54,0.3724004349140252,0.31591324554806677,0.7704722082774172,0.8300948674909334,0.7172584150638988,0.6535610494078076,0.34437152986773073,0.7399844918733556,0.011810838734262877,0.9270230352041081
55,0.3737991377107167,0.3681540647205272,0.7691047228514578,0.8360240194337976,0.7263282621247746,0.6620875757195024,0.33200814056600364,0.726812670613606,0.048705392857651485,0.9408027117249438
56,0.3770330803551407,0.42603315571477196,0.7682903064593463,0.8427468387526142,0.7371242236750901,0.695180632220975,0.32131516248543823,0.7136234235685405,0.20582952718352834,0.9999999875652935
57,0.37894041160667474,0.4734687986963647,0.7669161290663782,0.8471392245269278,0.7479060670238572,0.6353773533604834,0.31010207722774297,0.7005019529574774,0.1920056874568508,0.9094840102764964
58,0.3782711755322418,0.5149265774368644,0.7642933989305735,0.8546535899573907,0.7566205859901425,0.583748051747336,0.30183870721672856,0.687528888548125,0.3101548445936902,0.8240635103186966
59,0.38641419953408884,0.5361450977993449,0.7661734409434008,0.8654799694497699,0.7636794080571638,0.4956649168982025,0.2926313966291565,0.6747749083468347,0.30215554423601676,0.6591112060733716
60,0.3881038349253823,0.5669073879223205,0.7649301776595169,0.8766442590668937,0.7694998888625858,0.4259236251087543,0.2843544888238994,0.6622190942920081,0.1807728427775853,0.6473053789749205
61,0.3931227392499167,0.5831697799204771,0.7660096680741544,0.8870147393691917,0.777878250686786,0.373347729622792,0.2792764045878659,0.6499706150759996,0.41447206175957313,0.43934645403130795
62,0.39775795264266256,0.5969745985381915,0.7669649363467163,0.8967681225527132,0.7837522160352868,0.273339003205563,0.2737608460411569,0.6379943761791711,0.28245865413303495,0.3786960156110506
63,0.40236695931520267,0.6051816496563326,0.7683364289385491,0.9036061523058093,0.7895789711134058,0.20254747336789183,0.2697622780811427,0.6263135168981006,0.30888154439358867,0.28764270892393073
64,0.408342176494176,0.6046456635911566,0.7708266821705788,0.9067004943705776,0.7953283013399267,0.12428305408041691,0.26661939797535067,0.6149329439213547,0.26124695389422514,0.1793972978353898
65,0.4116622322209757,0.6027803619475641,0.7722161268655247,0.9070767632511084,0.7972792033011433,0.06313280563067537,0.265689045985343,0.6038780092815583,0.054859257812267775,0.13287975451225784
66,0.41679064910739716,0.597452423995079,0.7747538249414955,0.905919501029164,0.7996861821102044,0.05134659326988184,0.26603968778161646,0.5931331124573223,0.06776481087696437,0.09592085338045851
67,0.4221335385294612,0.5901595068211876,0.7777619642910046,0.9032539869646748,0.8013626660669003,0.07803081944954304,0.2655901583739519,0.5826956293893587,0.017199276379677393,0.11992365297627255
68,0.42657506456787564,0.5807778971969885,0.7805077144191229,0.9009509405168737,0.8037552612008605,0.08973678701403982,0.2651359797028299,0.5725724388861183,0.12165884149826771,0.1368394451226351
69,0.43219197990544933,0.5731506305794147,0.7838739341110799,0.9011407940535799,0.8045389236452188,0.134631096284628,0.26417749600906465,0.5627445548349216,0.06303190086403757,0.1808396771711199
70,0.4373646795976351,0.5650683170130776,0.787267562817611,0.9016020001447499,0.8060662887507262,0.16553168997047477,0.2629209187361138,0.5532082702650079,0.12222668927387662,0.2347511701606545
71,0.4439615326646996,0.5545984147470847,0.7915636453504923,0.9042021747708691,0.807756628196047,0.21526571924062216,0.2611662754460447,0.5439672252573345,0.07949473774687867,0.31653922829928866
72,0.4494780407502357,0.5433354936509913,0.7953660450477698,0.9042459261252197,0.8085908211181391,0.24770686001370143,0.2590578949755495,0.5350107609383847,0.11271597086970617,0.3304376887126429
73,0.4564187909977071,0.5250797713937634,0.800006904132399,0.9033626236914154,0.809252535230711,0.2954081096592729,0.2568480245732514,0.5263578717357932,0.037109016193700745,0.4072398015593283
74,0.45948773691826417,0.5149455520481597,0.8028209363670004,0.9044182835950467,0.8091604174531535,0.2886775395926465,0.25581671975485076,0.5179974914636418,0.12287257951422632,0.4054873613227091
75,0.4675548981273981,0.49542456138696034,0.807901942551165,0.9044568287303936,0.8080476460574679,0.3422406037137205,0.2538810454148424,0.509928721990487,0.06743785991019423,0.4860949458232454
76,0.4718829287545742,0.4798099686594807,0.8112714481191381,0.905308329044145,0.8064527889733072,0.32642369802244436,0.2519058541788498,0.5021385763838885,0.07340541248215958,0.46690077430521726
77,0.47585289606773945,0.46644957733774495,0.8142939731941327,0.9050354048201047,0.80543478954246,0.30701030436282045,0.25238823336569627,0.4946184429271723,0.029667264272322802,0.4346068555653021
78,0.48099990738801096,0.44965441480456525,0.8176809900769726,0.9048132098754922,0.8027026350562602,0.3071819192724572,0.2531431351637552,0.48736061131043984,0.023329799991429204,0.44210033236827295
79,0.49031076804564516,0.42965097099674915,0.8227231267521652,0.9023474568536637,0.8016921240081482,0.30606238717731205,0.25256479081809097,0.48032787421058815,0.18060157447734032,0.41389046187490147
80,0.4945983602500863,0.4193620380407752,0.8253798376545763,0.8999542140569163,0.8000251351809902,0.24818973655038584,0.25374077679165874,0.4735140130757495,0.12447259693404306,0.3270315215729353
81,0.5017129116301156,0.41092161075524825,0.8291285012574915,0.8960634370333178,0.7997267187052968,0.21420962670187169,0.257237465500948,0.46689561551738445,0.10739948067666907,0.30335917412701546
82,0.5054769529397337,0.4098901143280456,0.8312637195931373,0.8936322256044976,0.7999014045276647,0.17890767049947853,0.26108449277929446,0.46043780747057084,0.12682567903373493,0.22518163841722566
83,0.5097961850790897,0.4103850029193048,0.8335414327472412,0.8902940237882373,0.8000975568766593,0.14601554539994044,0.26564456264416547,0.4541400296152493,0.18632660090101927,0.20181539851550243
84,0.5114667608928365,0.42009020264879093,0.8344972620230254,0.8881751646025566,0.8009464121280238,0.10377715075683627,0.2712083431083296,0.44796473075787224,0.0564532962251807,0.1250054837136976
85,0.5152328513516687,0.4178355437070411,0.8363570277765332,0.8852034387107102,0.8019950604057092,0.07955100563755489,0.27646910552785564,0.4419411682296309,0.15687880561091092,0.13412090027871837
86,0.5148936958409065,0.42582061116325814,0.836300687024353,0.8823737318391656,0.8017468492868216,0.05425093336180205,0.2817041412993301,0.4360393247004341,0.035981953104638635,0.09995911184795281
87,0.5171984132602825,0.4273044734422175,0.8372491831865888,0.8775871487493079,0.8019846613134122,0.03649558179319512,0.2868143929315365,0.4302570135325561,0.08549293474951557,0.10661283016601167
88,0.5253676090403078,0.418933341551387,0.8407052836090864,0.8728920012854513,0.8057919684382638,0.06635758393857359,0.2856029370731627,0.4245830795905885,0.007683725221380797,0.07991700048519644
89,0.5291150695623098,0.41889084750894695,0.8421333974547104,0.8681452230253165,0.8090603932950543,0.07514761904498629,0.2821853979282857,0.4189959732936717,0.12523172273171976,0.14544285383405225
90,0.531947206253463,0.4246551421044842,0.8430323249750922,0.8634394453884763,0.812848769436952,0.13373374054792458,0.2810552139786733,0.4134743631027137,0.017722035406515332,0.219898248651696
91,0.5399786685067396,0.41805843992824654,0.8460657094696038,0.8593113625446588,0.8175391240657601,0.1273333445044084,0.2764711938923835,0.4080304549015092,0.07762967986905464,0.15603749703862496
92,0.5461552698959158,0.42044006412242785,0.8482037728930196,0.8567181175005324,0.8231022171734561,0.17284613850111993,0.26890001438097727,0.40263624258867925,0.04523430576269416,0.24205926204011174
93,0.5571532936291834,0.4149062371622805,0.8521393307122704,0.8547640216850309,0.829709311993592,0.19745168670842678,0.2586890515423238,0.3972834463694513,0.1172248084980447,0.23679008199013846
94,0.559776659096574,0.42575009441318973,0.8525854084172984,0.8536027908209759,0.8366380461534924,0.2579756622944946,0.24861825366646723,0.3919615381268574,0.14081460651831088,0.35254807047049347
95,0.5583515101722089,0.44619511087894936,0.8510527075423782,0.8544220378486719,0.8434149182766116,0.32391317105448325,0.2434059993062291,0.38664600929214216,0.04145826309277055,0.4898445964799123
96,0.5634576779411942,0.4605872649819043,0.851944542379164,0.8554990208770302,0.8496273455990342,0.3064345675684927,0.2356455921799586,0.3813245164771708,0.07989107613178992,0.44363530442235416
97,0.5671109363673784,0.47865583635575254,0.8520479673303568,0.8598746599353152,0.8550358989476223,0.3478231539778985,0.224376266866556,0.3759990348780001,0.0741232792270073,0.48045704855539534
98,0.5627412326241864,0.508865347694173,0.8487771983295044,0.8665644768629979,0.8598437631774276,0.39092657082517906,0.2171795116260868,0.3706792752268428,0.0471284964162483,0.5762224296145274
99,0.559565213120042,0.5347494759691216,0.8458503643755668,0.8745850262442211,0.8624429685246311,0.3760268833307013,0.21310988948873302,0.3653835018408138,0.10013152806240012,0.5497734867757506
100,0.5546326913016658,0.5598134083669409,0.8422480023986899,0.8852192206009414,0.8649548546510712,0.34745788531123695,0.2083266882893422,0.36012731963317035,0.04879690759574875,0.518643227462559
