Frame,Center of Mass distance,Symmetry,Grounding,Arm fold,Leg fold,Kinetic Energy,Potential energy,Bone length coherence,Torque,Center velocity
1,0.6203292189465199,0.4528261971627349,0.27368991187902075,0.7452442361580883,0.05568418637709739,0.013829245189872197,0.7089413054880931,0.9999988964487149,0.0009161981836886526,0.01715488202322187
2,0.6216252778371915,0.4558563079106591,0.2750837435320269,0.7428417283321238,0.05519538006627922,0.013829245189872197,0.7089413054880931,0.9958296467936038,0.0009161981836886526,0.01715488202322187
3,0.6230642271410827,0.4585881789986237,0.2757840227220414,0.7437872542056854,0.054929156864440366,0.011593184815197069,0.7100802541481092,0.9920833786249252,0.0004091902373107627,0.01276158927851311
4,0.624085446158869,0.461295966946629,0.2757761120910622,0.7427907847083772,0.05452069766689582,0.008747725344736976,0.7105836131052733,0.9888925313890181,0.00849595541475401,0.010691516761154514
5,0.62537333128583,0.4647522788985036,0.27600597780689606,0.7401513361554957,0.05416235100458262,0.011090390324717524,0.7110040126190778,0.9854824686348742,0.002474602975753068,0.013235948754947869
6,0.6266172477100371,0.46666772668818224,0.27364500424941435,0.7377831468483373,0.053910601145141346,0.007123881057501416,0.7108562406253356,0.9820848184130561,0.007120032646602196,0.004861263376182536
7,0.6277266231157227,0.4693800112072141,0.27297838560142357,0.7356603316891397,0.05362669330410693,0.00774138065113555,0.7105553106512339,0.9788452987037201,0.006308584108747163,0.008690428515644109
8,0.6285399076059163,0.4727295401978286,0.2731477107740496,0.7334748168437042,0.053611385448638624,0.008969654241892626,0.7107263624697646,0.9757368041858423,0.0013621240680955042,0.011102217048205264
9,0.6293833610153333,0.47529169972973595,0.27336503787071226,0.7306343898503626,0.053489064298530224,0.007387462198028539,0.7110996796928022,0.9727257879048736,0.001868318501773379,0.011141423804300866
10,0.6300813077407298,0.47650675193102104,0.2725593105078835,0.7284232629765949,0.05354785361220222,0.002842696761722266,0.7112962636660112,0.969893241765109,0.020025688826710433,0.003489637914968379
11,0.6297377185637807,0.4799945922603119,0.2749330110328927,0.724965857002291,0.053966670448877534,0.011225611027988906,0.7117926136095256,0.9671542415627492,0.0036780487850493543,0.011043657110089406
12,0.629473825374974,0.4826383625130112,0.27755651529263264,0.7218130277405801,0.05390801560291024,0.011504790949051125,0.7131901629396604,0.9645411374413925,0.009378516598494008,0.012973740989010529
13,0.6294550629848873,0.48346111922922985,0.27757333211019053,0.7202384940486852,0.053900122178294284,0.0013076855316187066,0.7140894499763968,0.9621454272503353,0.0030586848607087173,0.001324712172261548
14,0.6294434276298289,0.48362055318319347,0.27741242879979744,0.7187950436739193,0.05372532080667812,0.0012248723754142404,0.7143308387079439,0.9599147393777339,0.0031941998515533985,0.002366802558137952
15,0.6293437876836341,0.48390823434602287,0.27744062723947827,0.7162908969999144,0.053594506055835656,0.0013629661578507485,0.714610820026353,0.9578329780350154,0.004333793765213447,0.0009793228341671294
16,0.6289173816330261,0.48376377065773996,0.27789287855069644,0.7144337886624558,0.05321056761611614,0.001841126152555656,0.7150103104192878,0.9558406542993322,0.012204093845698748,0.0007775629328380526
17,0.6283899296902392,0.48444490240033966,0.2796772908815726,0.7129457882481376,0.052791080081127005,0.0063394499852822495,0.7157958182014725,0.9538680258166456,0.001594273165745273,0.0054077756649074625
18,0.6278542953351663,0.48476613686411296,0.280324509648829,0.7108297273712711,0.05266185831341699,0.002003283463590246,0.7165230387643049,0.9520019810432272,0.010007963358517273,0.0010888690864052943
19,0.6274745571513285,0.48528426597775814,0.28173905962106616,0.7092282802882381,0.05250148693777231,0.00532119613899885,0.7171731807058551,0.950139228520511,0.001145615987729668,0.004815863276376876
20,0.6270254579667731,0.48570991992566226,0.28229799682287093,0.7068182155057562,0.052625995764298605,0.0021775607448921686,0.7178521597126821,0.9483410994613822,0.0031247773737988907,0.001930891293122347
21,0.6268948725497779,0.4856026058990835,0.28196984017177523,0.7049554513099608,0.05258604257234575,0.000756770484752813,0.7180553176669279,0.9466051878784046,0.0036800076127112774,0.00027102870516341977
22,0.6267998831810879,0.48572311365192633,0.2822656278124357,0.7029504269498684,0.05252275526230771,0.0014033322915611441,0.7181935904420623,0.9448965328457731,0.00383506033188372,0.0012841189304833834
23,0.6265944364043381,0.4859864459731453,0.2825625455432361,0.7011514852654405,0.05247665169353965,0.0011532222361620619,0.7184734118953167,0.9432371987857213,0.0029521993079894087,0.000791758332506207
24,0.6263778453290295,0.48587749538530944,0.2824323161080684,0.70092517932325,0.05248009823991413,0.00034390999664066723,0.7186197925538593,0.9416273718391884,0.003229311799172655,9.370941061076496e-05
25,0.6261514104103044,0.4857377842369098,0.28248922421868405,0.701137737252248,0.05261712096041805,0.0,0.7187977407303329,0.9401105742573018,0.005708577684756331,0.0008331080465107003
26,0.6250069403441794,0.4865196891599391,0.2833475276799256,0.7015666848952054,0.053300203403781166,0.001997965141005029,0.7192041929680458,0.9387558802818817,0.007956946437198457,0.0
27,0.6226040604594325,0.4878632607066213,0.28399423521592826,0.7027010850416711,0.054189515832674846,0.004810079122021732,0.7195541842449381,0.9375809519939851,0.0074309340715969265,0.0024491566070166605
28,0.6218367020496247,0.4868839483423387,0.2831006298912691,0.7020413027831188,0.05553462726554377,0.006013282194498635,0.7196492017824316,0.9362960139403114,0.014874511054444343,0.001957000694902639
29,0.6221538689627133,0.4829519942937555,0.2791694768051436,0.7034506670499044,0.05618846425148851,0.013225611075259772,0.7194144163974021,0.9345973636293669,0.01562308311253669,0.005700569255514768
30,0.6224991017006428,0.4764524206368766,0.2729917852416538,0.7039497999291688,0.05510162280556737,0.021600601777892917,0.7187574502198216,0.9320701349518513,0.013868095384581862,0.011275764833252435
31,0.6237506839063719,0.46747303390496153,0.2658271751962402,0.7021932396528335,0.05516483365247181,0.029364192666485385,0.7179306592526002,0.9283874128108,0.0008256143134482459,0.012269827688356461
32,0.6253158921015227,0.4582983779633314,0.2616920677467735,0.6946034882513477,0.05646814417135019,0.0369257945216854,0.7191368954047868,0.9233355713304205,0.02304550623135074,0.020360025952892
33,0.626676194193663,0.4466526722416106,0.25557201078041786,0.681390490601357,0.05759772094698151,0.0425692839165334,0.7211986955259229,0.9167994615805756,0.005929430286733423,0.014000903636829279
34,0.6273005329916953,0.4369310872950204,0.25548523600181944,0.6630257321401819,0.05776393027047921,0.051899381286155136,0.7241220767223016,0.9087183516158792,0.018083712217646087,0.03386982791848836
35,0.6284873673933933,0.4287166128767439,0.25714046826694387,0.6388189207142149,0.05781148490243994,0.059189913878505744,0.7296229631660166,0.8990960568438422,0.01795807553837859,0.05198637238539936
36,0.6301942000318791,0.42081690636805436,0.25849205607424475,0.6146315430140022,0.05673625199562298,0.06487555089734184,0.7359828028802582,0.8879685487087129,0.04263628930752389,0.06355530033723046
37,0.6298765630078644,0.4156447844581443,0.266616623879673,0.5941112311120993,0.05638948064346229,0.08304094246137027,0.7448462912746818,0.87528831900572,0.038729592677838466,0.08488553950232312
38,0.6273124794294966,0.41464785737452586,0.2817638139765111,0.5735579187840342,0.05660027948030514,0.10145971123436605,0.7577552898929695,0.8610561866547312,0.033805178650354636,0.10188039426868466
39,0.6215702155641798,0.41801101523566586,0.3033648681415001,0.5489827832913357,0.05584486914423803,0.12132374036861875,0.7743846620808426,0.8452538375456188,0.04168927064319353,0.11799652089305068
40,0.6095071054639883,0.43023363923756475,0.3367237837254597,0.5175506001871074,0.05404542603412465,0.14564022641581978,0.7951907516791288,0.8279152479948814,0.045808514100798975,0.12687545337926476
41,0.5870669450777483,0.453921684487375,0.3862285931139254,0.4783676129069579,0.04389143586578985,0.17777453603729215,0.8215067306925808,0.8091238575163207,0.13040955080196617,0.13323468000477456
42,0.5569124186001934,0.49593345971309777,0.4688186748310504,0.4167479711696694,0.02569484676773157,0.24419798816150215,0.8570814506506507,0.7891873753297364,0.17978398559886874,0.13934980326779353
43,0.5325512954256705,0.5468615457741257,0.5824061200761292,0.3346039129995534,0.0,0.3238733653530534,0.9055248255411381,0.768198604616297,0.04677532976111654,0.15291452729150679
44,0.5211370915442238,0.5902049220670528,0.6819138328089415,0.2357105664693905,0.052523605004696515,0.34315337285222425,0.9574910828389666,0.7455694475303843,0.0680675790640455,0.164090007468041
45,0.5094483035471364,0.627893744980923,0.7336312376102126,0.1630223538730343,0.09163032157952966,0.3400613348404815,0.9925430485044835,0.7206690745690975,0.24503810747503305,0.2417093237115672
46,0.48507269025980815,0.6677439469188714,0.7406969916752945,0.10974928243628332,0.12317419618805353,0.3843223625071664,0.9999999881391524,0.6932110187440628,0.18355677091993164,0.32428386124999
47,0.44471402725960446,0.7225595912809724,0.7423626638207588,0.03886299877228723,0.16305622664192426,0.43375552655217864,0.9872832773626334,0.6634135495460683,0.2312722464395251,0.3398526228119319
48,0.38444799499649124,0.795766663323007,0.7487400315492029,0.0420414501204576,0.21864488999459789,0.5036896498781505,0.9632459473568453,0.6316555117746755,0.10519582849611597,0.3145153148695207
49,0.307126637018146,0.8695695649070062,0.7643750573432115,0.026767991762524725,0.29245379502381247,0.5518613859348626,0.9283505630456534,0.5983091711690091,0.36154525499517565,0.2479807433414573
50,0.21038981834475176,0.925723697670406,0.7612093452517732,0.13452229261408757,0.3839002567780983,0.627657595710727,0.875359162584234,0.5635772768798969,0.271047807485618,0.20310798985789982
51,0.10507912516043895,0.9730866920452459,0.69436222639047,0.29478414456552643,0.48679516767765413,0.6552485707567326,0.7942589928099139,0.5276341321544729,0.5523806742375476,0.2138903872688426
52,0.01952307376162287,0.9999999946004459,0.5213409056137297,0.42405756367009223,0.5862647529363264,0.675193075049291,0.6823414146021535,0.49066469288895054,0.9999999999425335,0.3594569434126751
53,0.0,0.9869189472487828,0.24897812316255372,0.4981814458730601,0.6628924885380715,0.7584016416711578,0.5498171073470861,0.45308599320507825,0.8964973979989412,0.6508664068498333
54,0.0708683077074346,0.9344703671457077,0.06942921338948883,0.5244108703288887,0.7173002683008535,0.8590502010729951,0.4143197915026223,0.4153381875134912,0.2420123172020637,0.8890498811022717
55,0.22359788841927833,0.8531460278334171,0.37485450492507794,0.5592441549190716,0.7634951855164701,0.8919737994342292,0.288239874711924,0.37776175099580056,0.17335041470252568,0.9529108100003842
56,0.4416651839869587,0.7584826947856077,0.6449172579656018,0.6271183478642335,0.8224070523951049,0.931157846638103,0.17955723512548846,0.3406367769263426,0.40168129856995965,0.9999999981565977
57,0.7257516400609749,0.6630025714855201,0.8607994536638914,0.7260551878166145,0.8809593763483907,0.9999999995834357,0.09040151982004546,0.3042123790322872,0.6806933087835415,0.9934010131851045
58,0.9629255356072298,0.5490891440793757,0.978355035540269,0.8202737234363398,0.9427682548433809,0.915523659015528,0.028768278678882684,0.2688176136461892,0.8389145326680082,0.9322203954805139
59,0.9999999976984026,0.3758690986738771,0.9999999748723569,0.8406779864594988,0.9999999750286999,0.7943718723421336,0.0007716206803384881,0.23496917045340748,0.17856600621199203,0.9305286589404249
60,0.8734442988681006,0.14208650078309115,0.9546942306538935,0.7766432401953872,0.9702365458678158,0.7557142765381657,0.0,0.20309918565016194,0.31188468494525473,0.8138097433873818
61,0.6995035896082127,0.0,0.8647301224256717,0.667066611088908,0.9118890280440088,0.7400473209096501,0.023200832200868274,0.1735543374919347,0.018854580063402147,0.6934904590311499
62,0.5305327142121289,0.05820692099731435,0.7416231072716563,0.5594038073818717,0.8565575862216581,0.6941489413647725,0.06920641183577737,0.14641992154008485,0.18858952472207324,0.6210709540543232
63,0.36499697520967217,0.15532474080847525,0.5699228080546235,0.4935296395145553,0.7848308787135224,0.660640414308993,0.1376727472419428,0.12155374396809594,0.0650328441851838,0.5917841261497523
64,0.21722449413782322,0.25793511590021945,0.33637864881535773,0.47970157398628804,0.6879696466394958,0.6813647959206302,0.230919544301575,0.09868957562440385,0.05287261906970164,0.6327361650185338
65,0.12665309428122562,0.34992223703278014,0.07717173000691246,0.4941194572745181,0.5795314559758439,0.6729002070676712,0.34236275954419576,0.0776504057801699,0.6146042277953311,0.6459067267492858
66,0.112244981113103,0.4176367889182864,0.1417026214988921,0.4864018071103099,0.4757063381001778,0.5381407322747827,0.4540117582719083,0.05866858187641134,0.46213387345292767,0.448080954769767
67,0.1403974449569887,0.46778176120124576,0.2985366790999341,0.4247850225924646,0.399934030569753,0.4427023921447102,0.555058748162654,0.04192459789663668,0.2818017355589407,0.30522941458323877
68,0.1830729970811859,0.5171428029654311,0.40280562976025136,0.3258928245336537,0.3522173981362633,0.41291142049180823,0.6436268818625496,0.027684307199724898,0.08920877342086113,0.2634074367899207
69,0.2310646950956049,0.5611924099254305,0.47207376494444475,0.21353350843180763,0.319712958272873,0.4192932362298122,0.7201008166415153,0.01622475672499319,0.06345839003333892,0.3064377136910903
70,0.2852141863242708,0.5668968155464725,0.5250584985703254,0.10287204836299911,0.2879840749546429,0.439701754666824,0.7866710708213721,0.007741121604106156,0.037446844402285163,0.3662574500965557
71,0.34587020911240673,0.5297542856908916,0.5711084475062642,0.007650759339042565,0.24646032960165629,0.44364447661098216,0.8435388303393692,0.0023533757413682,0.12690430967474234,0.4019815056711622
72,0.40841606569478506,0.4789367923694421,0.6185270163223265,0.014334574931160289,0.19160906270251254,0.40611849931806043,0.8899099206505646,0.0,0.3711891033218483,0.39740691637945114
73,0.463426212310102,0.4287279881683639,0.633376938898559,0.015664955146109036,0.1314412808292878,0.3372394217017251,0.9204704278605245,0.0005252504570741809,0.2882453348333704,0.36439580091226803
74,0.5018896432161725,0.3860515184723611,0.6275304965989136,0.012186299599747949,0.08344240865866284,0.2879041081790907,0.9319256227585924,0.003726987718287109,0.2409784933475821,0.3341386422167938
75,0.5269535539720177,0.35330826034271284,0.6084821428467007,0.0,0.06945651640908056,0.24910680195693202,0.928583468275967,0.009384562645928003,0.13977758296867945,0.3085076272052484
76,0.5429744718051929,0.3315125713536714,0.5830235327159462,0.034338370428686885,0.06267324385258354,0.2279746281043129,0.9146291938727452,0.017367010536311418,0.08994478801519733,0.3009551262311367
77,0.5542688191641395,0.31989138350220697,0.5578112418753238,0.08719799514297372,0.05929748501117752,0.21124010355036046,0.8945408866847935,0.02749138246184035,0.054366027999053934,0.2943248787711193
78,0.5640974852954217,0.3146207128855587,0.5330805241490133,0.1366089544401693,0.058306334977813866,0.19895876148861993,0.8714273590314984,0.039537501284492224,0.02110314382362213,0.29042671864351777
79,0.5738594941723888,0.31071361348946663,0.5052921121138022,0.18488802798838147,0.05629410220278794,0.19421405810168155,0.8456578250770154,0.053339507503413146,0.03479663781440523,0.288184125151487
80,0.5845943163898301,0.30482039171854797,0.474370605886488,0.23432245560199064,0.0502314834216421,0.18988523591649373,0.8168649793623194,0.06877009267510802,0.05064781636437072,0.2870749112798895
81,0.595938676376527,0.29768972779091896,0.43989693710025735,0.2867040496874778,0.041671886217692494,0.18877972814597152,0.7840242371679081,0.08584589604600565,0.05351172499597545,0.2907643975345618
82,0.6095072010833783,0.29553483536201863,0.40311570496910876,0.3412574349689105,0.031912063130588864,0.1871732366961627,0.746926870764948,0.10455715015500006,0.04695428484517594,0.292506836605625
83,0.6257092788993008,0.30720074713512086,0.36448166314671304,0.3974479809310665,0.022671754011648663,0.17898286455497447,0.7076145440294687,0.12470155913845259,0.0016252276914737547,0.2751352313374788
84,0.647440909991505,0.3247450985948565,0.32008990623578876,0.4534594926763557,0.018521799493379135,0.18294204799086433,0.6657592987092577,0.146236302193271,0.038160884623159474,0.27264789021473307
85,0.6737014733450133,0.33508615555988863,0.2772131831453728,0.5056719782968188,0.03931412626442553,0.16880229351846418,0.623077262926789,0.16893461533252513,0.05692655902178607,0.24526028891142093
86,0.6992617966868958,0.3369551806056556,0.24164491443103267,0.5509872122261775,0.06541586176270106,0.1431117226269121,0.5853043529515795,0.19248534599894124,0.04304728829405048,0.20313248265072728
87,0.721960877843544,0.33520027982654044,0.21190252945687352,0.5928596898590602,0.08726166827267297,0.1274627022191112,0.5534149414077717,0.21681683296943055,0.06203607841157018,0.18090674521314118
88,0.7408014635509139,0.33063269207870866,0.18875174501339056,0.6322667261530908,0.10489112320133356,0.10876314320974817,0.5262851299702084,0.2418363887644075,0.03427569741925127,0.15686397326055673
89,0.7561853438352144,0.32327659872163444,0.16928801418581846,0.6702939417957934,0.11874771097445294,0.09554268650700094,0.503575422174162,0.2674592392144259,0.024201577652307966,0.136253401656624
90,0.7690632215682826,0.3140671217888354,0.15377868401296413,0.7069762465691855,0.13067774837391857,0.08645934300427789,0.4846110405987426,0.2937082245079706,0.001279881136815673,0.12508246504757278
91,0.7797716738901651,0.30317471003144014,0.14067717232457994,0.7415261384205784,0.14156913024547207,0.08528892217818504,0.46879431324952237,0.320695925203402,0.025003697809044458,0.12408596078468406
92,0.7902227362693078,0.2907781263214084,0.12798055578917145,0.7736107815178301,0.15258175194283785,0.09054896433536644,0.45465023028450974,0.34861619030235785,0.03753327682875335,0.1293789249551018
93,0.8005528551105493,0.2769190843159917,0.11526192940294323,0.8027314990614164,0.16402577662004744,0.09840067191904939,0.4412511070774197,0.37766709683780947,0.05896022575906092,0.1376316166151751
94,0.8114426119627014,0.2623279509610625,0.1025195711237775,0.8282571676775103,0.17698454949646977,0.11189593226232504,0.4282949381611848,0.4081950740407699,0.05192058823633346,0.15476919823367363
95,0.8211881828555612,0.2478273267887419,0.08986840035613708,0.8518613415828568,0.1892855960178282,0.12328998833072749,0.4156374164408124,0.4405539631964624,0.009586821313653281,0.16820023497530498
96,0.832008228505818,0.23586257044931017,0.07718343451193253,0.8728429929719186,0.20195990850074902,0.12829637898771912,0.4034562399730857,0.4749203262869305,0.010970539548168737,0.17415543495748464
97,0.8435580449440876,0.22734916458269958,0.06520100803802242,0.8908420118014179,0.214724229350844,0.12639870916156445,0.3919838427566374,0.5112773870554042,0.05021599345635417,0.17199436992779832
98,0.8549616100689001,0.22161108770019394,0.05521520867911366,0.9061693686014467,0.22773258306402747,0.11570010531855057,0.38241358917399854,0.549426951399003,0.09559425348038311,0.15824439339288726
99,0.8678172627691936,0.2172650764011994,0.044563274996559904,0.9195466033539854,0.2405999811645567,0.09794582145867997,0.374582289803698,0.5889946317309633,0.07288781929994302,0.13152798939904742
100,0.8790216507538399,0.2155195387738087,0.03420050985527586,0.9330091012455615,0.24978862947403827,0.08331659678189454,0.36719205423850493,0.6296489161123975,0.05653748163084342,0.11239856774197302
