Frame,Center of Mass distance,Symmetry,Grounding,Arm fold,Leg fold,Kinetic Energy,Potential energy,Bone length coherence,Torque,Center velocity
1,0.3262467900041081,0.7322518332103176,0.33122361284129137,0.002018958763075046,0.17857180712396425,0.007613563679596095,0.9609004361317689,0.4635522394309279,0.02817318113185742,0.011655867841311965
2,0.32696645282718334,0.7301771707438329,0.33133315463172475,0.0,0.1777175280802518,0.007613563679596095,0.9609004361317689,0.4644595073795233,0.02817318113185742,0.011655867841311965
3,0.32714528796676184,0.728420349628603,0.3309813533009841,0.0002639080843144177,0.17593772305254732,0.012017400740937016,0.9623770441995451,0.46540606251002886,0.03223821954859432,0.008980401885233663
4,0.32670742840839806,0.7296534701282642,0.33103143642067323,0.0012086383389136718,0.17569415955954457,0.0,0.9633307181439287,0.4657902201660223,0.026971145036958955,0.005253974923495395
5,0.32648024523133096,0.7319231058208415,0.3316482648888543,0.001232493162792899,0.1758014840799259,0.008524283196161988,0.9638702940046435,0.46590163293330833,0.026879480907485206,0.0013919651242435326
6,0.3264155553816036,0.7338352689509916,0.3322058360704427,0.0005900811196450529,0.1757706931449807,0.004320652222926639,0.9644812735698973,0.46585660272423285,0.014732748815510188,0.0
7,0.3266342942086354,0.73445946915501,0.3329344495247452,0.004394636303589569,0.1762806634912274,0.0019299119082520184,0.9651158522073515,0.4659398771107667,0.01688826906935363,0.0004633959682222839
8,0.32655375750478777,0.7323972905432161,0.3326824452291048,0.009033212791173547,0.17651791812234857,0.004798579593782781,0.9650264854697053,0.4661767585664744,0.06653523080582582,0.002660974949517534
9,0.32606878536321926,0.7298609782114435,0.3316419772281226,0.016183707235828425,0.17625168700540977,0.023949187560215815,0.9639706747282357,0.46649260586532,0.016194311554720828,0.010208743523062657
10,0.3249041484222869,0.7297836364366065,0.3312046100089912,0.022083637852844853,0.17788849172932203,0.02369780495124829,0.9621792684465383,0.466865845307746,0.025507779432737573,0.020870455519744077
11,0.323490528317396,0.7339863751489952,0.3314609608459026,0.023429968638128913,0.1813027260143655,0.04187305127342928,0.9606410949618059,0.46706171223462123,0.10856279035227698,0.031090853761433303
12,0.32110843618684176,0.7423124024040517,0.33233207036943757,0.02175105732889748,0.18493805029998725,0.09051613365254674,0.9604901972253714,0.4667545851754272,0.07109149678122424,0.05646842653742616
13,0.31804162222303345,0.7539250974894643,0.3332402066068362,0.01721473251510416,0.19067103011469017,0.12891017409087632,0.9609105972761638,0.4657607312807565,0.0240558610701999,0.06321572748887642
14,0.31470365041481463,0.7655203619550393,0.33409804155838163,0.01101209743342474,0.19684796622396647,0.12024862824071862,0.9609504974475781,0.46425327160327373,0.09665977859468361,0.05283332007415259
15,0.3125324202592447,0.7739093784231585,0.33415635905226726,0.004561014862402445,0.1993978711032245,0.08488585681459014,0.960666340807306,0.4624503723887941,0.13339643538641474,0.040381529922025344
16,0.31205256477305576,0.7778603863825689,0.3337058515172474,0.01272781161823678,0.19906663441619368,0.028190367805918746,0.9603559971775933,0.460616642369306,0.03890835738098566,0.01718836301229437
17,0.31261585539947023,0.7789827127014471,0.33351113541871796,0.019104979489679815,0.198140032543685,0.018972015335661244,0.9603450270163537,0.4589495793728164,0.05046129192716107,0.007916329896739753
18,0.3128045672100852,0.7778739463939837,0.3329837103258154,0.02120795517919894,0.19838807429745386,0.03181780552129264,0.9601647221877994,0.4575016225488205,0.035898749176638683,0.014748055660043865
19,0.31124340921757854,0.7780095412351639,0.3314986979983009,0.021041266189549445,0.20135782221354048,0.04019302364791041,0.9584603105420849,0.45602822833789336,0.1522877552826353,0.04134203982360096
20,0.3071561170149221,0.7832669210049579,0.3303373211903314,0.022058940644355127,0.20776063469234798,0.10964729473214142,0.9549165246003058,0.45413669258807676,0.34551554255221584,0.08424044993120448
21,0.29945087637994167,0.7929607098004002,0.3282950565394686,0.026889448609863694,0.21632142273647567,0.24163694550463258,0.9489418976055695,0.4513563746061242,0.40732492403839454,0.14531076070713972
22,0.28745768459390014,0.8063132723956845,0.3254791802644408,0.03913260330316927,0.2288037980080883,0.39118290045816434,0.9381994678371152,0.4472663362859409,0.42311247911051564,0.19559185632528997
23,0.27061976640444235,0.8175899448784173,0.3207667407721945,0.05723864304277167,0.2452132756981794,0.5326339287669144,0.9202526154950753,0.44162659148823485,0.3712525319848104,0.25174082270526704
24,0.24855779398535802,0.8214824390087696,0.31189342221176725,0.07827052688339829,0.266646012105673,0.6280449710894891,0.8922665250348635,0.4344486155682149,0.2764782084630031,0.30302057271836985
25,0.2217520397580304,0.8165075479346211,0.2952191529009002,0.10039143007743079,0.2923399101988265,0.6730744149950725,0.8524160053285387,0.4259163309563383,0.04592202599262675,0.3574771210958761
26,0.19511792904349773,0.8077889159166747,0.2741730825931272,0.1228671513128431,0.3203181173655509,0.6462602058444955,0.8049492891640597,0.41636532694576617,0.4059938743604945,0.36475019427974587
27,0.17352167347028064,0.7988954414701575,0.25512012801523104,0.14484166232224696,0.34590382820207816,0.5444557234111936,0.7583854913100608,0.40622962346710045,0.29497519060954264,0.2968967499666454
28,0.15479942610859668,0.7901089640063105,0.2370178800467691,0.16551098725640473,0.3698572416127153,0.4728333965221358,0.7165529974430045,0.39583069050335523,0.26779600197793796,0.25589983284297274
29,0.13831110510630878,0.7819312662033944,0.21993878663626018,0.18260061780858508,0.39391553910873034,0.3995529148349077,0.6788792061315716,0.3854597354721971,0.30490794119126635,0.22365558048514655
30,0.12512644760302796,0.7746427868533846,0.20564121112692357,0.19631719307054546,0.41616542016093955,0.32417216467073673,0.6456846857637907,0.3753083318790486,0.3078580515262263,0.18462422025857847
31,0.11557796783093797,0.7671930029194951,0.1942769636050006,0.2084731775447195,0.4334537624471355,0.24994834845627936,0.6177645470653746,0.36551606793049174,0.19848112320214284,0.1538064455232842
32,0.10897308227887376,0.7584666572937775,0.18465255208435424,0.21842517154983346,0.4466813460807502,0.20138604230305487,0.5957322225986529,0.35614079863285586,0.26127894505093163,0.14508808661337588
33,0.10477299997852098,0.7500275478725504,0.1778398716816163,0.22448358074099373,0.45423444943549923,0.14103773332300762,0.5802035229349791,0.34728845870187985,0.178788162031229,0.11732463580761608
34,0.10083965345207664,0.7441402702567124,0.1749756296461919,0.2303974364876084,0.4588194898912588,0.11584655158804248,0.5686879619542987,0.33900354242848657,0.03483965452971997,0.12690033721666277
35,0.09832098125462402,0.7366647124458822,0.17551687192949228,0.23338691762366026,0.4656492521054245,0.1161899844134753,0.5614624599494675,0.3313576958036745,0.035881086606778335,0.14175933405927563
36,0.09618042844240286,0.7323844937941402,0.1784144038839684,0.2347224672678902,0.4739125824420448,0.12094354377034311,0.5589764012817713,0.3243651873718762,0.13402353900813252,0.1554824867284801
37,0.09317048919509302,0.7281248500359729,0.17812481906804742,0.2357703735286141,0.48652251047220585,0.09977718673405686,0.5573402944946004,0.3180186966911171,0.11986050198431529,0.13798220018955837
38,0.09070394573036827,0.7255035003018971,0.17523298740386103,0.23590442681207732,0.5040285639503604,0.1367437274830827,0.5535660946637628,0.31230321873325756,0.021284176452400612,0.13394304823772077
39,0.08695152002018693,0.7204081843255726,0.17130170025345443,0.23553531852489154,0.5253076443415786,0.13998427404977296,0.5450814299383039,0.3071643417434296,0.03721432743971481,0.15572721392784136
40,0.08258092412985225,0.7166072447290831,0.16665195836038998,0.2357239894559883,0.5453860011926897,0.12428579548079699,0.5326953196150791,0.30244739377541857,0.0716111397364736,0.13653969025322577
41,0.07767614405232298,0.7145954275247702,0.16133734109698766,0.2389660407797366,0.5659304242492897,0.1419446460946482,0.5181752951077924,0.29797049006947174,0.2855701242519103,0.12634676276543347
42,0.07182525747828121,0.7111615125193412,0.1524245092878254,0.24646759178850022,0.5857295864827169,0.20837805649898025,0.49929867296580366,0.29355115709913276,0.22669598069605026,0.1382239828815954
43,0.06589168119037675,0.7058571661771317,0.14118555067818594,0.258250378057454,0.6039648828347174,0.2650388713643821,0.4750282727451013,0.28906651011268536,0.2448382200606932,0.15992623075614837
44,0.0598345878525188,0.6994865557788861,0.12714010253258246,0.27241264283691347,0.6217036952431857,0.32971938061359063,0.4465082489338863,0.2843651721367721,0.5551014930028411,0.1787945427364567
45,0.05511423230564869,0.6860999470714785,0.1050638124395395,0.28987398552683236,0.6404935837504036,0.45816030563497695,0.4109060387936193,0.27930839604188323,0.4675267716611133,0.2774954256329504
46,0.05091315647942716,0.6743608578914668,0.07844926336332611,0.3101971322524431,0.657775954376995,0.5740222212464535,0.36480196924111263,0.2738121304464129,0.5846103181351269,0.28279025749427494
47,0.052842758347537586,0.65415515287813,0.043814769459873726,0.3341839739659487,0.6744255060527331,0.7048901005024572,0.30761306062381094,0.2678142825514219,0.21770665821960095,0.393825217749754
48,0.060642206755994334,0.633996005179862,0.0047801549132039526,0.35905593822655,0.6927434161495264,0.7641806166569526,0.24489915976575885,0.2613272044309557,0.8108679404135734,0.4748951911488702
49,0.07771520469664894,0.6154165091849488,0.0401201870035942,0.3855043253279276,0.7139449903355816,0.9564158405784232,0.1742997991494029,0.25434982875825407,0.14654286269434255,0.5901183023214487
50,0.10296677370297658,0.6035766207179982,0.0898126102505713,0.40883723308705683,0.7375317292646627,0.9565365308659468,0.10241205707347524,0.24697796344871514,0.06061032881768522,0.701910901785294
51,0.1363829249948462,0.5940052400154174,0.13789139823124155,0.4294274380443382,0.7644975392603053,0.9456852063450333,0.03943918092855224,0.23930068096153204,0.20499426121462308,0.7283832859812506
52,0.1772214537327888,0.5785810779323391,0.18355997593415932,0.4456292359232173,0.7892554362769211,0.9094780738501415,0.005797971815900378,0.23142109817890807,0.06586950457558022,0.815503327525865
53,0.22468269703197763,0.5527865016741493,0.22633025530402417,0.45799366923177887,0.8111299043201514,0.8933686416873704,0.04899337943179983,0.223440694118114,0.4583448564284051,0.8360705037224556
54,0.2705821371946603,0.5247557953312638,0.26118922540840145,0.4681133251932562,0.8292212516478096,0.758517774193344,0.08587904039822969,0.21545293772718008,0.4656613662875417,0.6991022820298406
55,0.3110208236765875,0.49504002466138197,0.28837935276575394,0.4765281046893418,0.8464963493089976,0.6161268236969084,0.11577588448244913,0.20753615855082638,0.21525471720378608,0.5455924071514896
56,0.34823786358421216,0.4615589107406829,0.3112104082827796,0.48167426390197854,0.8629521105854898,0.5475312385883828,0.14039244034007303,0.19974783349464212,0.15512242211674696,0.5005921377445893
57,0.38253132425531117,0.4250775504342231,0.33048772718151626,0.48443428188480175,0.8793294757813769,0.49125875845308736,0.1619764831809276,0.19213936889734803,0.20423669286171464,0.45053222537235604
58,0.4118490781159309,0.38947352715805783,0.3463675388115311,0.4860343246029401,0.8964061510418826,0.41336099536943427,0.18120015077314436,0.1847333575896489,0.02962261477242392,0.3723836008014423
59,0.4378133666226524,0.3538048312529938,0.3588170399321386,0.4882700476386217,0.9085351004009721,0.3992407219734307,0.19786571819521143,0.17753802765776655,0.2173388366454442,0.36294883376306225
60,0.4536757282574335,0.32514411557611367,0.3664544891275387,0.4914690458161456,0.918792431328535,0.29502195171893897,0.21056710025983022,0.17055327110908192,0.10403801280381791,0.27258657963036237
61,0.4624324433311323,0.30435929177856325,0.3705908524722711,0.49707567180139894,0.9246304053316152,0.2412389300621502,0.2197186149866752,0.16377789814375243,0.10827888771387582,0.26319013883886583
62,0.46653977318874795,0.2814280392463386,0.37164297278402186,0.5020884935721864,0.9268300707383288,0.31406134840975464,0.2264882260907744,0.15722462281278562,0.03262928333492611,0.37441929057614476
63,0.4607320293844067,0.26594736132486124,0.36829191812625683,0.5069667332958786,0.9260216799457212,0.28903078809426364,0.23014720769139313,0.15088589028728414,0.07372036518009907,0.3371492940924425
64,0.45065371695177514,0.24923230236862592,0.3622938701805534,0.5129710143082847,0.9199673425293493,0.337475616445087,0.23127709938067825,0.1447683061733305,0.10574749678853393,0.3822611457393887
65,0.4400391863130574,0.22708910854978376,0.3551258250663933,0.5184312158187158,0.9101420395098174,0.38361224568476704,0.2308321129944604,0.13888204802102133,0.0837032942444228,0.39196526285873934
66,0.4295135967336412,0.19970571887768307,0.34763722113500356,0.5198384138551457,0.9001444309477096,0.3950917114684276,0.2294202101886728,0.1332429383872774,0.012823356375173652,0.3616225420820526
67,0.42349297438706357,0.17211563799561014,0.34174910656002805,0.5199979155867189,0.8880099597101708,0.3641364993910638,0.22742582417016396,0.12784910900080376,0.09664242530208571,0.2859083674249406
68,0.42400920881864357,0.15033747462495026,0.3389320107920825,0.5214161338902017,0.8771092853583565,0.32718727019646926,0.22699449468337002,0.12267508322178737,0.14286770617128114,0.25740738293619453
69,0.42552894550920023,0.13792387571029344,0.33734416388518196,0.5236299014383502,0.8714765213067938,0.25967253338524066,0.22885446545247104,0.11769055078199364,0.11927029537417955,0.21855061259419814
70,0.4306971248195245,0.13500075852588528,0.33799508221501684,0.5271549117662542,0.8697591496623128,0.22250349972840422,0.2326426623895675,0.11285861558434768,0.04648417579607669,0.2112051690732498
71,0.44088421246973303,0.13962123747483957,0.3412439456038799,0.5313729081719016,0.867791567566583,0.23331850922128503,0.23966424224730593,0.10813576388310656,0.11769264774401819,0.24567331338073115
72,0.45851115212139315,0.14953545331759316,0.34749616272485306,0.5372375860323914,0.8618995673612985,0.3411841987546479,0.25078463731034456,0.10348380021798705,0.12364452069841479,0.32757304311448177
73,0.4813738396071581,0.16157353205101244,0.35586007168293493,0.5435666577975459,0.8556192033420758,0.4398180242258207,0.26522467933665167,0.09887947516870979,0.21178337330937907,0.4080652274332026
74,0.507920105815106,0.17677196962502384,0.36549650471862793,0.5509218158968453,0.8514312130874341,0.5708279430223595,0.28154457387893833,0.09430376151770978,0.07567638494676371,0.5339521280682991
75,0.5338152782026475,0.19427758419341767,0.37451987964497696,0.5566485380356931,0.8470505261861837,0.6069074121411946,0.29734149261801995,0.08974659230005305,0.2683265140856269,0.5978116418029129
76,0.5570246429010841,0.21946299066947275,0.3817956652802148,0.5616838853808678,0.8427392330801157,0.7528774195555819,0.3115831498042812,0.0852073536657631,0.21109683135072355,0.7435283440816951
77,0.5732556673301372,0.2599047173685546,0.3864947183203874,0.5635280016345625,0.8375868134625782,0.8725007891147092,0.3252300086536853,0.08070431031321085,0.09060553502159706,0.825511806419311
78,0.5776987292811808,0.30824781077453367,0.3878349522249519,0.5607927390718489,0.8346122155335121,0.9138140193929407,0.3368150754862965,0.07627276684415012,0.21820995651252742,0.8847824693282463
79,0.5674324340121516,0.3444475906052962,0.3853964810379322,0.5512762754777903,0.8371232869464788,0.9999999988188624,0.3448393360201877,0.07196564636031823,0.3312594074205317,0.9999999960655518
80,0.5490917999100341,0.37255121755925386,0.3813455269494729,0.5387014983853509,0.8410064268778468,0.8687265053523735,0.3503682498519809,0.06780503051157896,0.3009843203302143,0.8227579544910698
81,0.5144792272325858,0.38679015799237854,0.37251301944675697,0.5224356553620675,0.8495127045571156,0.9965356671103626,0.3524598657392726,0.06383888543222395,0.22587481858806738,0.9419335265446503
82,0.47443596143758776,0.38481355863926625,0.3612310988847874,0.5019690522804311,0.8567524211410165,0.9186317675644069,0.3497295130176685,0.060094216555956745,0.666996656294455,0.817341725255196
83,0.43466336581250953,0.3835481354745513,0.3482527629822165,0.4826570554408345,0.8582173265569204,0.7045990963346351,0.342622723788415,0.05655647854040029,0.38674605838157905,0.5646659573095896
84,0.3969931462252423,0.386094118273819,0.33478569011985704,0.4659084263716738,0.857905788753591,0.593103141718367,0.33222914377182894,0.053204513056983725,0.28920613673444245,0.43161071734728335
85,0.3628678114654011,0.3943729676364282,0.3209861320232928,0.45161426605545113,0.8544367792416767,0.5127197630797988,0.32075308817724574,0.050015032952086716,0.2926529466514398,0.3468645736406691
86,0.3338248367302468,0.4067793687732668,0.30781795799386324,0.4414197080115383,0.8480463131431,0.4381715198976217,0.30984755419679927,0.04696557176138618,0.2503834837607401,0.3011110680887892
87,0.3076188329675575,0.4264990126821095,0.2943120851183056,0.4355137216414617,0.8389374773807172,0.3742296342914001,0.299282726111203,0.04402993408947007,0.22717332826451297,0.25923681497951717
88,0.28405980673549175,0.4528722300173101,0.2803236063115731,0.434339545496355,0.8268228249806211,0.3221598860303987,0.28879365342079016,0.04118619195459164,0.11972076705051146,0.2515500917052738
89,0.26282413927903125,0.4866306763443522,0.2657051083747331,0.43742130344082164,0.8128632547684289,0.2984782783361737,0.2790544314925643,0.03841415510230444,0.05064152772273843,0.2588229409246343
90,0.2450393743023748,0.5229681994181674,0.2512475387509963,0.44319226476389784,0.7975636338453886,0.29108255097637276,0.26975153790290046,0.035704438968632846,0.25130563442500853,0.26072425255345283
91,0.22807870281516296,0.5626948894766087,0.23532592872152702,0.44997359084090033,0.7822683592423236,0.3465175207150204,0.2598831292172894,0.03305019747007897,0.05507224783008394,0.31151588791025375
92,0.21647653688774354,0.6002383206763153,0.22130435578589028,0.4570858879436211,0.7663043509653358,0.3592087710176343,0.25062927927229556,0.03044358506253275,0.23240150195345843,0.3401754776254131
93,0.20472123737550732,0.6411104465186873,0.2054788283727259,0.4656263306651184,0.7490476969435304,0.41128305960552064,0.24201480650686683,0.027882155928787802,0.06631392651340852,0.392238722965442
94,0.19246116341273653,0.6805325614031915,0.18772860549517287,0.4744460986743432,0.7303382841643736,0.4249530321558759,0.2309904986921995,0.02537419041828419,0.46625531847256696,0.39922062117580914
95,0.1850647617276876,0.7066256297550072,0.17382983213994635,0.479914680108906,0.7090682316996767,0.3235083948487703,0.2182675722439982,0.022925780358327656,0.26963630712570813,0.27869525896989733
96,0.18062692651336926,0.7255759399812178,0.16165895718101292,0.48208582285639584,0.6840715167545088,0.2828264653974764,0.20529499874167598,0.020542235839154144,0.06322370062852084,0.2726377303830689
97,0.17458448569278306,0.7441231748806894,0.14848433885873394,0.48342586521188813,0.6630284542958111,0.2757224891291902,0.1913098737881185,0.018229795701911654,0.17424033147385085,0.22767077646149025
98,0.1678627005036874,0.757355011840306,0.13761742628106977,0.4835769897481687,0.6487664086122884,0.24172445164443748,0.17602199226508758,0.015998165678868647,0.2981333656850589,0.1039420277330553
99,0.16364297126613264,0.7622042771631369,0.12918034774792567,0.481903812177738,0.6361365418066861,0.19783500685705885,0.163554239171841,0.013853530052477933,0.041676306089182484,0.14103301671333596
100,0.15818536612939782,0.7620509443438614,0.1217320877748958,0.4786841852211131,0.6282172122172598,0.20003056289550308,0.1531901044528753,0.011802521381271186,0.5646937173074992,0.07498686334665605
