Frame,Center of Mass distance,Symmetry,Grounding,Arm fold,Leg fold,Kinetic Energy,Potential energy,Bone length coherence,Torque,Center velocity
1,0.37568359038486565,0.5883884502829325,0.07917683671500929,0.0,0.14283454090274886,0.06756247409467657,0.9999999849882609,0.5536199420362046,0.024732213818392353,0.048636527239937624
2,0.37743025125738594,0.5852235169826189,0.07896221685876949,0.0021630728471126147,0.14130301392756323,0.06756247409467657,0.9999999849882609,0.5626969780425138,0.024732213818392353,0.048636527239937624
3,0.37884754579206636,0.5846964936106697,0.07778632934398524,0.009674512671910622,0.14016950264927747,0.08013107327651195,0.9963121696328319,0.5721386655534959,0.13570717147931127,0.056172324297964
4,0.38111203778323455,0.5841256230997094,0.07787843131035181,0.01645069263969923,0.13886923062254578,0.10458018188809402,0.9930349405768828,0.5819411793304436,0.08057240078291623,0.07447173195945614
5,0.38307645958585596,0.5817509529964743,0.07662719565865961,0.023895886851485904,0.13831453308675992,0.08650509566690918,0.9896314255971835,0.5914227421658934,0.05169594391490718,0.054641452827594285
6,0.38489477074777917,0.5791981055325254,0.07540302466063181,0.024879862138668645,0.13814348625783932,0.07002278158047778,0.9851351059490583,0.6003453237925024,0.2900478132577176,0.04237989319266937
7,0.3874896183200719,0.5788811563800875,0.07372249134216932,0.03999780603439998,0.13513890430988193,0.1528839129922019,0.9803472893080271,0.6101192932356309,0.282955985530057,0.09485621758188488
8,0.3885716850080538,0.5787486839850766,0.07142020927668963,0.05136534712916056,0.13300709437757072,0.07442574637753321,0.9741129226585217,0.619295611014752,0.2541795475317598,0.032312571876190306
9,0.38878513655409025,0.5786550664523823,0.06624183467596541,0.06563215357212525,0.12859616844311508,0.14657038419202414,0.9646982052495481,0.628335609144693,0.3037285565699214,0.04748679506465573
10,0.38963129540836666,0.5829807389586357,0.06513944580029656,0.07638700497789733,0.1277729330946623,0.07612055044070053,0.9551377792880923,0.6374062479616356,0.2003156053443637,0.04947384659004838
11,0.3891517980868133,0.5834477977704358,0.06106470483261097,0.07803846257024526,0.12659174926351358,0.11466712563300964,0.945668955038212,0.6461511529395111,0.04934161534224773,0.053413947161526344
12,0.38826421518813065,0.584858947257304,0.05735977523212296,0.07592151074675169,0.12475873369675933,0.1349171549536719,0.9338150109443413,0.6546461217621473,0.0937462041929774,0.07409628359958909
13,0.3862241532069112,0.5836147075038003,0.051540814220216495,0.08264470431318587,0.12304598733865917,0.14918196306117804,0.9203398527118943,0.6625405084897903,0.03046275853902741,0.0763227970973445
14,0.38415572032922507,0.5823752070702582,0.046469386703358685,0.08927084742989849,0.12010734699848775,0.1443257851432944,0.9058673453628032,0.6699597989050662,0.1118000185586629,0.07903627080796147
15,0.3824972864737926,0.583250869686009,0.04195033412803519,0.09423971257605877,0.11771604763534785,0.11625924809131115,0.8936779277065641,0.6767205404393556,0.05695579978118554,0.06716745702837387
16,0.38056984238195063,0.583709701700986,0.03856635601828565,0.10136905776631701,0.11597296122031095,0.07547866471089357,0.883632347979105,0.6825794084861244,0.01581029961483417,0.06253806371087331
17,0.3787012967463497,0.5858051557396984,0.03457649225873015,0.10889172205681776,0.1140379562193827,0.07148925575299367,0.8738007381478697,0.6876847491566415,0.11301251452976,0.04650749045168035
18,0.37793289568956023,0.585030801084403,0.03198127771215583,0.11341053870759205,0.11259564876095245,0.02845132926011748,0.8658792559496488,0.6919010668602504,0.01781930124498451,0.025794461929681975
19,0.37674872279751825,0.5844490847656171,0.03037292772238953,0.11444739672646577,0.11180076526772163,0.01806670022632945,0.8612704818283015,0.6950900319289706,0.015811046800435907,0.0386336265223599
20,0.37597594241082694,0.5843071834808096,0.030045956544694025,0.1125142260666916,0.11101389266123404,0.021079403353300427,0.85952480140159,0.6972128512644986,0.07390482668490124,0.041777022604101564
21,0.3750717929860252,0.5823643658852337,0.030685825456562205,0.10726363807843516,0.11173339134310346,0.04993164786468076,0.8602510379463489,0.6982808005586564,0.0162044621503474,0.052164878865148645
22,0.37412926365280186,0.5825511184157245,0.03243442734909527,0.10179532929475239,0.11164913572847959,0.05436663177346887,0.8635436944827211,0.6985339890604627,0.07844255929426423,0.042483123842569886
23,0.37329269083368866,0.5815735174335956,0.03387546393211985,0.09407484339958454,0.11169085474197227,0.03504294484377127,0.8689171125545021,0.6980874927351541,0.05158688831386542,0.025152829170993693
24,0.3734719729179242,0.5795496500321861,0.0358706373930977,0.08923117109874287,0.11347096968198302,0.04552769088755434,0.8746062015963837,0.6972311083039368,0.08173391297536899,0.015980094390571475
25,0.3744607400197026,0.5756782942490037,0.03872355986599333,0.08116133373337056,0.11617071705361512,0.07602110396311094,0.8824101887391459,0.6960196854173823,0.09472953104145158,0.02432319708593154
26,0.3755234203268131,0.5733258310460183,0.040393672436079484,0.07793579739175235,0.11726648160400233,0.022180852292865056,0.8898508001586742,0.6949717144315356,0.02509187149921257,0.017893274567719344
27,0.37671079724526824,0.570945707480262,0.041358476566220326,0.07794937611542052,0.11750071204216365,0.009822812182701084,0.8941856955831184,0.6943036009511538,0.022659513379402068,0.01944778540130484
28,0.3779727841143291,0.5687896204360422,0.04151741620792231,0.08090445396471475,0.11837912992919343,0.01039668655273001,0.8958271604238199,0.6941750785902647,0.06212488189409221,0.020447776223227236
29,0.3788895222554536,0.5694355207934901,0.041695543129346195,0.08718664060181108,0.1244607600286737,0.005114322790233037,0.8954306466400203,0.6944550778189522,0.027701566038557297,0.009600106620538547
30,0.3790527956521304,0.5716001376002867,0.04329079985902448,0.09157849990269913,0.1278551451450031,0.0,0.8954796501086492,0.6950265131487894,0.08504892538080963,0.0
31,0.378087614514473,0.5759096751522483,0.04589268985795158,0.09382318123484838,0.12946109748193485,0.026590784006510035,0.8968578686092895,0.6956647923493905,0.06916733191624651,0.006553975421696892
32,0.37755393045535823,0.5756811635501213,0.04749286325325348,0.09364261571474605,0.12841029679908747,0.011240806062060344,0.8992768199769177,0.6961708770253193,0.066865903328729,0.001522204813631607
33,0.3773631374046646,0.5734939497753498,0.04956089407652369,0.08951454976652824,0.12906022354697091,0.041936170630831285,0.9026946031519033,0.6963371938682276,0.19364537787386057,0.017857576083136456
34,0.37691381354991726,0.5694255340911973,0.05286470817381197,0.08253715091214822,0.13184631723409776,0.10330613968402691,0.9078828518367772,0.6958872748537344,0.0748339479971989,0.0570761128756926
35,0.37521496905271556,0.566396360107696,0.05644010741527616,0.07104294705285404,0.1336710894456811,0.13348244416407198,0.9160339629537634,0.6945586893701199,0.24072918147440356,0.07378345390104109
36,0.37264508550079645,0.5625218419438476,0.0609028586572527,0.05459714348925568,0.13538912893390453,0.21785123822016367,0.9266187102812894,0.6920393227835218,0.4450894778938167,0.13193528902629578
37,0.36879368935124746,0.5666307886568058,0.06807418555777758,0.03239043655329026,0.13798431370419945,0.3491554988703565,0.9406868658226247,0.6880568690581784,0.3901822307788375,0.19058772412327657
38,0.3615047447426583,0.5829341066617832,0.07587476250631187,0.030456356280764017,0.14023632803005023,0.4646119292034337,0.9574082722611427,0.6823773453077873,0.20163072666764315,0.24931855717656848
39,0.349376182038383,0.615428374525875,0.08200813562319931,0.030808141577896294,0.13914049151104999,0.5204782780208016,0.9711607648057977,0.6749957338248967,0.34918285814727945,0.2787958457009214
40,0.32941638976173276,0.6605999711229376,0.08349837224917049,0.03192662456197041,0.1340770781894366,0.5892758059761006,0.9745383626351038,0.6660710485935186,0.022657493802910537,0.3149069226036395
41,0.30456681129293606,0.7062045840299337,0.08149166714425857,0.03503728103999823,0.13385830986505481,0.5823694089876481,0.9658930571122888,0.6558835667057392,0.45317020090813975,0.3118165306400296
42,0.2805129551645418,0.7426379272134775,0.07867905471512784,0.038441220574461206,0.16407972623904996,0.4732503289722944,0.9512708743998419,0.644827481938236,0.3626497398515394,0.23754187230052348
43,0.25761800234323506,0.7691248173070162,0.07489662510972797,0.0428263838833644,0.19390965511274472,0.3931820714143349,0.9345892216746605,0.6332082317774811,0.05147184698063976,0.1896665689944069
44,0.23563023461142052,0.7856343006955491,0.06834419711697859,0.060178595322539635,0.2206150433678918,0.36315223906087546,0.9145029955099735,0.621242962840583,0.32197906017042077,0.18563908884092772
45,0.21654260475540782,0.7981755455380352,0.06469705550337644,0.08218679333151627,0.24668771462602226,0.3016467193150441,0.8951640249215848,0.6091428111053396,0.2163082285666662,0.1470578628286694
46,0.19927589844591884,0.809525110526272,0.06422584428581436,0.1003978133524761,0.27318886574424495,0.2644191629279039,0.881733906980195,0.5970685808315351,0.10608894348603996,0.11750331814810157
47,0.18151425407849203,0.817039570535841,0.06244158790586364,0.11564595457815527,0.30032402648475603,0.269669244221644,0.8676682067373068,0.5851307702853162,0.05709291603905556,0.12248176731293724
48,0.16544075881543432,0.8207599807729017,0.9377606751479606,0.12824259533850407,0.3251845340718316,0.2605265752217177,0.8497391611284231,0.5734012223842428,0.19059714648253948,0.12646125664608449
49,0.15179069295610295,0.8218821049805146,0.9384244231173294,0.14025011699739362,0.3471229961065197,0.2439933384064176,0.8324511567323482,0.5619179530170385,0.1341483180681323,0.13292128350104748
50,0.1398002638453222,0.8163999702723195,0.9422452033445312,0.15135966565252942,0.36382755997891153,0.25703575343988727,0.8139761835119768,0.5506772117625327,0.24698434043953307,0.17325757048535134
51,0.1273106022453313,0.8072110308402184,0.9506299545018233,0.1637145451836879,0.3804551356076975,0.2815876886328638,0.7899868027037192,0.5396574767856904,0.21990369480790858,0.20493583830275997
52,0.11441165558604503,0.8005024495916462,0.9578815682527076,0.17674831764833254,0.40461040465842313,0.2556388078652459,0.7651614840354418,0.5288471778187921,0.10601190580688452,0.18925922753083407
53,0.10022667108687881,0.7936009649218554,0.96789058667164,0.19129301921431124,0.43192603068559204,0.2767701987466165,0.7398531581909054,0.5181993553422981,0.17437223943553706,0.18186062463582087
54,0.08750281444246961,0.7881192782208556,0.9761214011543514,0.2097209544569293,0.45682318378149117,0.269091177412238,0.7121597456627695,0.507653226708684,0.05289334581875009,0.15868360231777076
55,0.07618845033548831,0.7844224314095988,0.9850360359489596,0.2293772165792,0.4784817764080745,0.2783945426315157,0.6836960490033365,0.49711432890026463,0.43407604086209817,0.15569306843518319
56,0.06693430481403696,0.7852799393729651,0.9895853948385881,0.2521249917523094,0.49910977470200213,0.23570466850893707,0.6593429038418026,0.48651194329888126,0.12955921045403268,0.10686211540048793
57,0.058144632249558494,0.7885387781648696,0.9944361714733663,0.27454544927251473,0.5157101614386028,0.2478426452440328,0.6393434946700872,0.47580307350452616,0.7217714049030044,0.0884008935804569
58,0.04808691470728392,0.794115844541631,0.0032731852547579804,0.2957015891831036,0.5298964693310907,0.3336335179593517,0.6144512361810882,0.4648917898310201,0.6688854410747387,0.11911542522165328
59,0.03608556598977283,0.8007352172872282,0.018761696169104784,0.31660145546771473,0.5457018592070108,0.4331410459529113,0.5792979614522493,0.45374536647094016,0.8384504285724245,0.15020792685286066
60,0.023810381180148412,0.8052891325911912,0.04264482054913595,0.3365508306861568,0.5614659954607508,0.5549413214075902,0.5294784333682395,0.4423278042108257,0.17970239225756407,0.23833379985875983
61,0.014297026336240632,0.8161638483269076,0.06712857311692401,0.3554986981179248,0.5779869189050155,0.5920777171988759,0.47193904513862134,0.4306310807086717,0.13784559847052033,0.2898275552001851
62,0.008532366174237858,0.8286113321208527,0.09539765804414069,0.3732995139720177,0.5966558404542434,0.6134062584340866,0.4136702264592186,0.4186835494136681,0.25009853885094985,0.35000331957031083
63,0.006744482358077412,0.8442125334415026,0.1265138810391167,0.3891393001875803,0.6173470210120967,0.6505647133618176,0.35171028907191304,0.40655985117091853,0.03239566805373123,0.3995959957305911
64,0.008931597800754426,0.8647555320160668,0.15858819428566645,0.4024032980177963,0.6408216347775121,0.6580164341570086,0.28848583571158204,0.39431563087254534,0.2125102963931268,0.41850485724585684
65,0.017906918743754083,0.8853458620058042,0.19448434605515777,0.4159732833793862,0.6642101008256796,0.6940415100323876,0.22470940888712765,0.3820078945086344,0.7195456654758488,0.4676960723058678
66,0.03364947298036019,0.892179304224837,0.23131975041205777,0.42577569256962755,0.6872599039019824,0.6066085378094734,0.16410809067266602,0.36973102205574454,0.27545028781641057,0.488846636692481
67,0.050254243349187315,0.8985932939763132,0.26382610029554204,0.43652621125653257,0.7122055850378013,0.5617151435505576,0.10975172411141221,0.35755603370089606,0.80142647560156,0.3820025156646744
68,0.06778216645507104,0.9020023423773557,0.29066329092906074,0.4461215278567558,0.7356380250873824,0.4413301390886689,0.06178468719566382,0.34551617185332667,0.26498720409718063,0.30383509549127635
69,0.086542103958961,0.8976396833310769,0.31575181415650067,0.453246843459325,0.7585817635732817,0.4015863266535972,0.021034458875781963,0.33364300067560854,0.1593222887587012,0.28750913945888784
70,0.10586787133648079,0.8859277060523989,0.3397620852103899,0.45841420104203123,0.7834339497056463,0.3785289656504064,0.014609708151603736,0.32196549369102806,0.27390541729241924,0.2657583273439264
71,0.12339616258174307,0.8754660437320467,0.3608093096155157,0.4644604304279186,0.8111608394473767,0.34413532345183967,0.04768523057183043,0.3104947004219217,0.029812262749898545,0.24888973167772674
72,0.14311272648436546,0.8624273604971141,0.3811238909986244,0.4711023329666703,0.8378698399067928,0.3424662953543992,0.07707749991756963,0.29923387631941667,0.07867607743516558,0.2493901179465897
73,0.16560795316582347,0.8443566215887702,0.40227307463900575,0.478677741590895,0.8684574830257168,0.36233230414722695,0.10619529271988967,0.2881849659102823,0.33992053294135044,0.2719479547576666
74,0.1968362307340436,0.8150470979591798,0.42404955551978185,0.48539757023131985,0.8854023643916856,0.41067386771205167,0.13587752305953668,0.2773378372421971,0.41627880430551173,0.32642317512940655
75,0.23456544638899082,0.7765671795285224,0.4488317777231592,0.491858374120853,0.9087168595389021,0.4950610687486789,0.16635595336101602,0.2666652988088469,0.4850047599446027,0.4307125184692619
76,0.280208121215692,0.7245664732624278,0.47423873709914227,0.49712525372079786,0.9259004728532523,0.5966863671416185,0.19594204528886838,0.25615787117943095,0.18553473772087734,0.5767966048201468
77,0.32839182736343825,0.6650753640235918,0.4979660299512687,0.5022494920751527,0.9408527568949684,0.6492214206874443,0.2214177429125605,0.2458082235007108,0.2724144334491148,0.69516019898389
78,0.383114455110548,0.6006841778834064,0.5218543651779416,0.5093029321774687,0.9604879436591853,0.7231502765999239,0.24385693928748273,0.23560450889989049,0.090212535753251,0.8179675414140198
79,0.4408555349591566,0.5424765023805443,0.5435279797128282,0.5210856550611116,0.9861459577311105,0.7038397366010661,0.26623426844196046,0.22553134103102823,0.21469511821794882,0.7750620460763813
80,0.5017916860209295,0.4948179072701993,0.5628858012732928,0.5381923958513488,0.9999999738798514,0.6543781593070487,0.28995551665103864,0.21558284211653123,0.24199546484033488,0.6891985116525142
81,0.5591443925534519,0.45677437342872795,0.5777072633434639,0.5593260501533011,0.9809631974400941,0.5827560600250814,0.3135953019815739,0.20577040100523247,0.09415570192271919,0.5782579867221161
82,0.6168986737253079,0.42402449139490794,0.5898155373494882,0.5803454062740775,0.9545590164442979,0.5509485308679507,0.33468597762679175,0.19609999742338677,0.1934219869214983,0.5293785729859297
83,0.6685938369317811,0.396975169395258,0.5986597450823775,0.5978077695504579,0.9301003333951547,0.47826115258415325,0.3523278983826741,0.1865869137270066,0.01618656899047432,0.47052633653537473
84,0.7214097152904818,0.37034109661065223,0.6060490279904737,0.6104146019845159,0.9087287296646406,0.4802122690120067,0.36725898778523247,0.17724555928055136,0.005189666034888413,0.4723019321868239
85,0.7768962665388744,0.34576260030768774,0.6126650897941943,0.6193151888777422,0.8927210132399094,0.48697068710279007,0.38103759835742046,0.1680778950799983,0.097713535656339,0.4761203070601211
86,0.8372950086002353,0.32209962019885785,0.618420525344455,0.6259227364754294,0.8808037514581408,0.5531155484205709,0.39379234908560784,0.15908203371512047,0.06780473462563621,0.55310363462751
87,0.8975841819112399,0.30090976933607355,0.6225781963820973,0.630083337346557,0.8710147448857968,0.5973720810589858,0.4051411499553076,0.15025627644410572,0.1523220551037774,0.615182530829809
88,0.9501122812723991,0.2805610934134892,0.624831862357101,0.6294441830245707,0.861523651750994,0.7028666935163115,0.4154232771427206,0.14160812148093035,0.19430812447223295,0.7066015864026134
89,0.9395852414996596,0.26253744636487775,0.6236998286019647,0.6251762337433834,0.8538970318376473,0.8282204564250066,0.4252698503882248,0.13315357485019502,0.1285352505095674,0.8531276978602059
90,0.8590124711540323,0.2506987844729173,0.6176336774225561,0.6158162785365114,0.848911935894581,0.9209478885627919,0.4341948921746616,0.12493297974846415,0.11730303872418311,0.9607603889039933
91,0.7537028158154596,0.26389576830910766,0.6053007221915104,0.6019844329352771,0.84651817921892,0.9999999989859469,0.4408151429698941,0.11698949509764811,0.08320244246350286,0.9999999966318608
92,0.652984305335835,0.27975145247058525,0.5885660226882486,0.5845899196031682,0.8478018034826983,0.9490745034152512,0.44325379752531685,0.10936492250132238,0.006830039696341673,0.901546070031648
93,0.5542064980393338,0.29383953549407876,0.56692736214979,0.5636461474603022,0.8507990451298899,0.9330539915111598,0.43888069912407246,0.10209410732778863,0.1087669180549651,0.7913749364439969
94,0.4628204166844131,0.30370383800042794,0.5419113876150518,0.5412248040164115,0.8527894718821367,0.8817496308418202,0.4271436737950241,0.09518919627698838,0.40091209370571346,0.7109188066354635
95,0.38438829229402366,0.31446328306015464,0.5159247240699351,0.5205794799625252,0.8471661027394103,0.7463661538275058,0.40932582574655085,0.08863120941672681,0.5225011922474768,0.5473651577853839
96,0.32218115399258573,0.3227752024551684,0.4916121634367866,0.501656875628736,0.8319418048413402,0.5964557418208102,0.3877582358806547,0.08239465863038238,0.2154602151377142,0.4023161117371684
97,0.2698036366374615,0.32915705906026504,0.46821503869740255,0.4832337806657834,0.8147349629033345,0.5338709308880109,0.36474751094925184,0.07645810613109742,0.30146451450545875,0.3378711618189178
98,0.22739878743239522,0.33493651044846506,0.4468000917992892,0.4658303995252435,0.7957567987937104,0.4591533877703815,0.34142354998590313,0.07078717534048289,0.30183132632182846,0.2869592940768358
99,0.19363881873377922,0.33780535967687386,0.42696787153528476,0.44906629982387036,0.773760950425347,0.3923282269119906,0.31820898252189667,0.06535023537921554,0.06646782940885426,0.23120769644255668
100,0.16363109294710204,0.34758703407764324,0.4066957630878589,0.4359327272688864,0.749326737514292,0.37313866477907354,0.29218453191678295,0.060116763802052275,0.0569208198091322,0.20282824290903784
