Frame,Center of Mass distance,Symmetry,Grounding,Arm fold,Leg fold,Kinetic Energy,Potential energy,Bone length coherence,Torque,Center velocity
1,0.3936940965226717,0.44485997967130664,0.7102256028083271,0.36164336563502003,0.04852924846149623,0.09169969233531718,0.7423996057573489,0.9999994075745741,0.00446250488984118,0.09821477172577033
2,0.39495528441799893,0.4445149745942003,0.7130140775672711,0.35175229374372075,0.046058572426499696,0.09169969233531718,0.7423996057573489,0.9955063510968974,0.00446250488984118,0.09821477172577033
3,0.396742175362308,0.4459700366693216,0.715144222585985,0.3411036360286052,0.04329810079018441,0.08392325637325782,0.7459874555944579,0.9911012116662907,0.017059906237321246,0.08956465355030323
4,0.39830592045505736,0.44816966186838325,0.7152134405875799,0.3351538616303511,0.041379000460998044,0.06821649260627183,0.748765129100616,0.9867240239535569,0.009800557926285114,0.09479777181097027
5,0.39953005830106875,0.45168411695132454,0.71522052666216,0.3340412349465791,0.0403463535426939,0.07573780269942727,0.7507618543579822,0.9821345142397798,0.07174358815748502,0.11700640131517608
6,0.40117616921247284,0.45646866447767814,0.7163366669378788,0.33516795087801954,0.03910777472776039,0.09660513176099286,0.7531823534868105,0.9775086830541474,0.026021518072334777,0.12754835831918343
7,0.40273135748040967,0.46063418725741745,0.7164909387167754,0.3409251582402328,0.03827012608844264,0.0734053118950525,0.755705304954924,0.9731413863355961,0.0025208000283156898,0.09982710857402036
8,0.4042068164862692,0.4652070354017632,0.716578192100725,0.3458276645433373,0.037898123006532516,0.0697555167744136,0.7575372468005303,0.9690559148497284,0.009181163235169466,0.09745066270932186
9,0.4048089624963273,0.471280947809143,0.71756345578091,0.3493878521320442,0.036699915815146256,0.07154319340439373,0.75919271271698,0.9653677234824128,0.0041212351855408145,0.08487958205364204
10,0.4057850078807352,0.4763170446668089,0.71840916973302,0.3514399519780127,0.03613997891674728,0.06717315435730138,0.7608141900696879,0.9619672284869736,0.06360383965391389,0.0821265719348788
11,0.40658046988449414,0.4795162596033215,0.7184700904842225,0.3518240827449073,0.036634750825251076,0.03142493512328126,0.7618808894172879,0.9589187054483999,0.004836567362499483,0.04673503127067764
12,0.40721236467918964,0.4825213137680568,0.7187247854438326,0.350480003907691,0.03742826135576597,0.02794227167541282,0.7624376738778499,0.9562324254264744,0.008517741228126598,0.035575019465016455
13,0.4075199599177756,0.48495759879163325,0.7190680076102288,0.34922110808056106,0.03764065639327499,0.01714721572101396,0.7628458378088673,0.953869206663598,0.00479236700614874,0.02191885518045959
14,0.40761825331395946,0.48699016813420704,0.7195851657605202,0.34554468274138656,0.03782988823124277,0.009853537835144928,0.763106297721184,0.9518355519456823,0.007473974556552837,0.007926685971395427
15,0.40742976490587846,0.4880080970940812,0.719833665625458,0.3430871286847001,0.03823912540036727,0.0030235786843123987,0.7630564085986298,0.9501066148839172,0.04121642876657322,0.010501885543901909
16,0.4068733873634944,0.4877483865880948,0.719934221061001,0.3385758851501292,0.03892557396716782,0.0153887990330885,0.7628589655825996,0.9485111689930421,0.005095147307900733,0.016708844001894388
17,0.40582563434320684,0.48750750687983924,0.7200176947411224,0.33768577951347895,0.03922246666424497,0.014552066639231306,0.7627297135587005,0.9470009829218956,0.08523513237260968,0.028853398883201424
18,0.4050211232977249,0.4844805388603614,0.7178098047646636,0.33980581622973105,0.04010567371249737,0.05121202510487844,0.7617618900247378,0.9455054904251042,0.19045391305422937,0.054282113834567866
19,0.4037760668661585,0.47739987140618756,0.7121924687981378,0.3405636553715565,0.041214731356627114,0.13077819393105344,0.7587728833004947,0.9439216232680282,0.003669131155157326,0.10692015476763882
20,0.4030343784684411,0.46846484243609077,0.7063461301129405,0.34212173462894424,0.042676491331193125,0.12889279514952415,0.7548181734883809,0.9421855089581981,0.02983723401469707,0.10203202185210428
21,0.4019719733523469,0.4577189335702971,0.7004339494047049,0.3426933273491785,0.043936691977269744,0.1422065064353605,0.7513165848855493,0.9401734105751436,0.03678391640175792,0.09151447834258404
22,0.4004428294635846,0.44514391282997745,0.6945986435566484,0.3380329211508874,0.04576869278886178,0.1597886946171923,0.7480795478006963,0.9377843464099374,0.021455175587254346,0.09502225613333151
23,0.3996125843471803,0.4309886142474358,0.6881960271345778,0.3292919532635244,0.045199283847738164,0.1720382293298265,0.7451001260269239,0.9349764787879405,0.0399844626428015,0.09460047849520176
24,0.39949962596541494,0.41876680267332983,0.682871322381553,0.31451624275996404,0.043372465084136586,0.14658714257410674,0.7429986743117917,0.931681740370471,0.022163421894969802,0.05877714586471697
25,0.39963253322914655,0.4082501582370896,0.6780359813821615,0.29865053861880886,0.04220431849425685,0.12525290502956266,0.7420662501822853,0.927979718319505,0.05888003109298807,0.06195856951174168
26,0.4005197954932197,0.40350353145782797,0.6754320647582024,0.2785572567899391,0.04074118821911516,0.10977523495745758,0.7429168592775861,0.923941768011985,0.0,0.09734521855940342
27,0.4014275995423668,0.4015226957906032,0.6751532785371765,0.2562195634427022,0.039590723744790585,0.12897238232421065,0.7465671768902743,0.9195980034598119,0.03925369256724187,0.13872786959666716
28,0.40183999302862095,0.40458098910884105,0.6760504883436512,0.23291880532499784,0.0392617855458898,0.12635601873219307,0.7517900935816555,0.9150981204312653,0.10107136941332517,0.15090576540679884
29,0.4005932845821852,0.412631126056687,0.6812920326516786,0.209304848121268,0.038986055217642535,0.15888769004172237,0.7585658477219015,0.9105465152238018,0.02899902676592677,0.16406786903594553
30,0.3981455921449749,0.4229246525186869,0.6879563187354504,0.18634806404848878,0.03649993393815481,0.1738136342466111,0.7677513525587504,0.906045341619543,0.027806066080648187,0.171291961789312
31,0.3948858534721443,0.43528974308880736,0.6964121983552756,0.16129724573586637,0.031764565692594685,0.18574643825886067,0.7780904342483652,0.9016383360054221,0.03574082752922141,0.16150657483433056
32,0.3913868850823869,0.4486583069042843,0.7064335087909394,0.13893680068737374,0.024643933684491335,0.2023962989672183,0.7891481571063648,0.8973016617632276,0.008398907450050066,0.15480246469030307
33,0.3878386077694563,0.4607931153945449,0.7157154799225595,0.12187398614204444,0.016331895581139757,0.1874044518455169,0.8000248902803887,0.8930060532294024,0.007458047051631455,0.13608196204881248
34,0.38329181557256753,0.47203340067303085,0.7259289775086691,0.10325886694502438,0.00757239968764364,0.19459431814219533,0.8103492480558117,0.8886880015539798,0.03218861124047905,0.12446478173638736
35,0.3787620848602256,0.48225063970605103,0.737557928933308,0.08393861864431822,0.0,0.21487815705728702,0.8212677654817294,0.8842566539951057,0.036841200728691285,0.12746379495419252
36,0.3747420214070776,0.490957364395504,0.7502183427385123,0.06704172496681246,0.0038298832818458345,0.2357671530478175,0.8331779224346898,0.8796522882409594,0.007790689179877127,0.1345407475665499
37,0.37095450274223857,0.4950408463976569,0.7633257778693833,0.06288981502816869,0.018338176832797898,0.2621774915349798,0.8461062107306949,0.8747633207466198,0.08891659824432835,0.14172406070941898
38,0.3673650377217824,0.4964052195960257,0.7794839838911473,0.05507699111054218,0.03335058688299198,0.3200090986493569,0.8607386181140387,0.8695256329714763,0.12275486716104486,0.1600994719509304
39,0.36382375517195226,0.49451936989205547,0.799761311840791,0.04943828865990821,0.05052384104722766,0.40543871694660855,0.8785110529333752,0.8638238471231363,0.03497808060615573,0.19339264603251094
40,0.3613795475630006,0.48803161248371324,0.8213227158572318,0.047577821532405064,0.06638384966517541,0.4534463043984547,0.8991382017556386,0.8576075264237815,0.11385510097987653,0.21197494113889512
41,0.3607554935425335,0.48525341114073883,0.8454412078466131,0.046659871134098044,0.08014165515690351,0.523229185405119,0.9214069629598713,0.8507859589591935,0.15906170358344637,0.24838742576894265
42,0.36146836078110534,0.5004946098971306,0.8728114127990455,0.05662048209676268,0.0951605711725667,0.5969211622733874,0.9451192178088781,0.8432890804358296,0.013777143836759521,0.29764694704970734
43,0.3608677150912121,0.5369056178537579,0.8968571637617857,0.0724807829828904,0.11517469290472908,0.6039365252060763,0.9666160126688372,0.8350847827529326,0.014441560844336686,0.36098263252800583
44,0.36015715534653076,0.5773492181625067,0.9175587939195423,0.07890398335671665,0.13390693184564464,0.5805359110824982,0.9824152480343216,0.8262440642896749,0.02884700364491568,0.3998040222794285
45,0.3584446971922509,0.6139815281597947,0.9343641802513217,0.06831079209074337,0.15222060672579357,0.5459620723554404,0.9928148811630788,0.8169160507150247,0.005723139995007562,0.4121719548253991
46,0.3551320109329994,0.6441746113837452,0.9460397689055144,0.04976405347663734,0.16888841149463882,0.5133369462998801,0.998254462214952,0.8072068696478044,0.06337243730030126,0.40865903440079115
47,0.3507542454566735,0.6669121890126577,0.9543021771108857,0.03380031028893214,0.1839484618203544,0.4584386343414779,0.9999999888237927,0.7972643309949626,0.14932114207220779,0.3638773374401659
48,0.3457692431415879,0.6829950453375396,0.960032462182689,0.01510823934007062,0.1975344289239297,0.3901403766874173,0.9993721706590682,0.7872129218520354,0.15379711843912136,0.31593077552039933
49,0.3404779764217761,0.695094385832594,0.964449032184197,0.0,0.2108280441902236,0.32313692535443594,0.9971700325800409,0.7771586786343766,0.10584247072206937,0.26673908759434267
50,0.3349472352548314,0.7040749165043164,0.9662730142320589,0.001683504033791294,0.22166325374489493,0.2661457314129956,0.9932272621253866,0.7671855640933096,0.16347279862307315,0.2301921283724411
51,0.3303552004162631,0.7107032419206873,0.9668490431836868,0.006074277795693087,0.22889475193366293,0.21364338941592567,0.9878178182026286,0.7573289842461218,0.07187586087749567,0.19890530318123464
52,0.32546680839902997,0.7169236973135537,0.9657232865896652,0.02172668543655448,0.23513835897720287,0.18445807856266805,0.9816410204348535,0.7476311184385906,0.06331716150309855,0.17676936141278782
53,0.32073642112880807,0.723339914070115,0.963538106159687,0.046186188775157386,0.24019572698408428,0.16682294987025312,0.9747226644276372,0.7381307054126082,0.018675523037447874,0.14624352536280685
54,0.3160223652208,0.7290688669450728,0.9605076503067721,0.07585862682376322,0.24454160861261168,0.16777637705571502,0.9676410055360001,0.7288562310806139,0.018686056731137258,0.1185054387507412
55,0.3118164977897632,0.7366908181755923,0.9590955306821173,0.11010833676766049,0.24983973983820992,0.17686277958035435,0.9616890578069336,0.7198464598383478,0.16065692088725192,0.07223175210325546
56,0.308532428762003,0.7481841819643967,0.9618357741927659,0.1336869490188005,0.25739550161912755,0.21437920134456026,0.9582874082389741,0.7111508330191835,0.36844844961466255,0.04978356129051772
57,0.30666349232644435,0.7651434900540326,0.9698121465241891,0.14599338680545465,0.2671136720854276,0.28725700206900995,0.9577684230069827,0.7028145339358808,0.46051758187700975,0.1258868991267084
58,0.305910410928263,0.7883931719095539,0.9825608543500322,0.14965673156567355,0.2805182920565853,0.37948515174258923,0.9607305220585521,0.6948551077580766,0.06455568177821398,0.2193382900035077
59,0.30132653442708773,0.812793586313087,0.9934676595985374,0.14819115823266985,0.2992675570635291,0.4094173021966924,0.9643393709300473,0.6872537175697646,0.3237929262890733,0.191918623757521
60,0.29600938805531346,0.8331430933291283,0.9999999936461832,0.14374486313408763,0.314408740912376,0.3435434632462659,0.9644698794211197,0.6798884184435968,0.029263936772531002,0.10153853353938005
61,0.28735115205427053,0.8483732982863637,0.9997140447819918,0.14074223208345274,0.3249815790715097,0.3294805726793398,0.9589793543902633,0.672590889345895,0.07404326460329044,0.07646158256900737
62,0.27749539723581024,0.8581992200310286,0.9948906693643321,0.1364175071400243,0.3321277384878823,0.31315027751692015,0.948049044287001,0.6652322193699426,0.30388323532738504,0.17836767629420625
63,0.26614797203940427,0.8657960225370291,0.9900248088227047,0.12691515294639574,0.34094032648550154,0.39129440362099643,0.934183817380266,0.6576956229884756,0.6236758129736907,0.2556073480474634
64,0.2528772698353141,0.8700285782291711,0.987747043050891,0.11749111352883106,0.3544447895235536,0.558686728928156,0.9172148192408887,0.6498494839870859,0.6794630137432454,0.3363117894109865
65,0.2385680296100833,0.868528468906158,0.9889221132945807,0.15583917250190288,0.37144792527960574,0.7468367929114746,0.8965409753366442,0.641602569978766,0.6603574483528061,0.387150171052348
66,0.22164628841080078,0.8618474031023253,0.9902851454949344,0.2320050737384302,0.3938584618957338,0.9115583870498539,0.8710127418552598,0.6329020794877355,0.6018896588421375,0.43750548033540604
67,0.19980753698648987,0.8564034100652759,0.9836385258721491,0.31472895196717726,0.4177823889719577,0.9999999987116411,0.8380421628523411,0.6237527028105873,0.03056493663338748,0.4642856029307711
68,0.17603321292641277,0.8533021474025216,0.9694995239490046,0.3929434297240242,0.4407607777719319,0.962316273557364,0.7994108011065064,0.6142337650020702,0.14444376692325972,0.4673319963150584
69,0.15142088928048672,0.8499239901529992,0.9463381532041238,0.461707526171406,0.46194944073945043,0.8710404547644842,0.7590523005749511,0.6044631028757687,0.7680897590987552,0.46837054568802605
70,0.13014865991395178,0.8477351852621221,0.9220192603432705,0.5131074491839485,0.4806266188018578,0.7332231543925747,0.720791838952682,0.5945492493602095,0.9476118662195008,0.42510593675532526
71,0.11335131129797403,0.8488808947948803,0.8997570623449737,0.5501568588707558,0.49707622526307715,0.5905628100345324,0.6889854321438852,0.5845937824711449,0.690115237646278,0.39929075952197296
72,0.09950708633394599,0.8510262015516801,0.8791579201094549,0.574584533473148,0.5117317522962413,0.48962605441939444,0.6641075695634028,0.5746634219107021,0.3183976588636691,0.38092162714282907
73,0.08694948692352336,0.8512981188292467,0.8571839332290223,0.5966769660139495,0.5258504978908111,0.4389688344480386,0.643171905399436,0.5648080005210021,0.7396823248310042,0.395380662673313
74,0.07744785000358789,0.8499303962963757,0.8383350722971089,0.6109643457681496,0.5377052390723205,0.35058026196269004,0.6251653744979473,0.5550748778950422,0.2106324788392459,0.34302836955445065
75,0.06857849651735988,0.8459174732843965,0.8184378482095018,0.6225158647764532,0.5488637399867566,0.3317520433823163,0.6091341186467774,0.5454992597686225,0.5257308320276589,0.35236577588144363
76,0.062285293703465826,0.8413820283175071,0.8015568208158933,0.6289896936508728,0.5576416324395959,0.27401017255190124,0.595015207292103,0.5360988852422851,0.31669436539001644,0.3164840834719012
77,0.05674787785864869,0.8380185448162014,0.7863464364358407,0.6335693106826136,0.5659848921044793,0.24235874613092812,0.5834428769601406,0.5268836512843886,0.25455790739241324,0.28779367345871615
78,0.051697779029664936,0.835091722889117,0.7727735965579222,0.635083202193846,0.5746522672945745,0.21821505708187,0.5733004187934136,0.5178667692627099,0.039676285879048055,0.2550869508020432
79,0.04699149846928735,0.8319723762062615,0.7592783833044797,0.631878101819281,0.5832055753678099,0.22241327503321917,0.5640257710843476,0.509053922948313,0.05435043649003022,0.24735605441633446
80,0.04212952432842116,0.8305232445773565,0.7463700404183411,0.6232112551968767,0.5928161331856906,0.22301877469150977,0.5546762669544377,0.5004511388990887,0.13298584212892012,0.21558487053114178
81,0.03706323389814364,0.8272200201107665,0.7320612511364974,0.6113418001394315,0.603072030607398,0.24223385743013967,0.5434332926421583,0.4920680076724942,0.08585745861148353,0.12882627332356633
82,0.03242150152406686,0.8281502593822301,0.7202586421591846,0.6001738884457061,0.6135053750858032,0.2387914925718647,0.5320948360592993,0.48390702596146523,0.283519919082194,0.19174938174936346
83,0.027278639538471455,0.8315628977821066,0.7077116681942852,0.5906974885574362,0.6250476693929906,0.273514555916788,0.520923731542384,0.4759767911112551,0.27606541899197923,0.1944373430017271
84,0.021407968383598514,0.8376805937379729,0.6962781406830394,0.5896717544890753,0.6378442557132892,0.3065519201337498,0.5068162073205136,0.46828744500187486,0.4739624477025325,0.19040780574161756
85,0.015134445475401954,0.8488346982590946,0.6841341889500735,0.5918351197416166,0.6514088377383008,0.37713386416508343,0.4877501359259524,0.46083932804061956,0.4755336248726382,0.28302634734099796
86,0.00815737857791024,0.8661540287103927,0.6749707111854236,0.5964785845499289,0.6690900335948698,0.45558656498825667,0.4658410994277356,0.45362765659684495,0.03966176658143061,0.4148787732527913
87,0.0022789618492912657,0.8803081541085522,0.6603416007051288,0.6130079026068914,0.6891907562943335,0.46159085089346447,0.44209765973214993,0.4466221181997731,0.675728097685608,0.35487821975792583
88,0.0,0.8903653608351757,0.6436495654637029,0.6264012102154389,0.703928522047434,0.3684703738866594,0.4172576413259534,0.4397733905747071,0.7781569876031676,0.2786295890283193
89,0.0010793832740840128,0.8954260173935508,0.6268827157531354,0.637848022423443,0.711778374536373,0.2756633488126587,0.39670727944066164,0.4330428014462102,0.14094162858809658,0.26936978094654235
90,0.004032046540697663,0.8976222346708135,0.6100040759072486,0.6609177346473564,0.7150844922375529,0.25784847469025246,0.38069480363052344,0.4263901776963714,0.4927981786914599,0.2899958606902247
91,0.007427395726557877,0.9020861739477308,0.5929182832327752,0.6868393943885668,0.7184666584104673,0.31896844482353176,0.36673413669432264,0.4197744857673445,0.8435888127234542,0.3354080533799403
92,0.010515221928906597,0.9156649928107332,0.5747827213249408,0.7136030091119396,0.7259552915086616,0.4481329955328995,0.3517687759552112,0.41315737629542487,0.8759518430390689,0.3339747377587428
93,0.013201730776905018,0.9386815744637462,0.5540414051470873,0.7514546845916763,0.7401580189232129,0.5921048810328663,0.33353297945818006,0.4065135975855899,0.9999999998237815,0.3154368928302214
94,0.01723812728979762,0.9701398311181467,0.5275505956235567,0.8018604602779609,0.7618686640640187,0.7452132113161821,0.31161016099304006,0.39981257070267684,0.2291916758596532,0.34225302037623556
95,0.023283366345101583,0.9938688301659567,0.49878205165172457,0.8525588393061486,0.7843649613346602,0.7584973554929365,0.2889779146860757,0.3930587197006882,0.2013579172627572,0.4344531325447278
96,0.031943396307556736,0.9999999954835211,0.46796230487317436,0.897359086265133,0.8053193035564911,0.7387075361254154,0.2687504541379916,0.3862751481385527,0.044280936863270434,0.5806801946322115
97,0.04378372029221079,0.9883605351623221,0.4364010957525189,0.9332615547065545,0.8221699098593133,0.7040678868711086,0.25130581618587294,0.3794929926320373,0.4268833431779498,0.7204666105085153
98,0.05581470471310267,0.9671555661678882,0.4085864571445819,0.9613716948399122,0.8364953560055669,0.6409722988198946,0.2378623781290531,0.372739741830312,0.7173148324228906,0.7606885330861588
99,0.06683933981092471,0.9431642759586425,0.38592388201095323,0.9774947613277992,0.8478542571386144,0.5462540173661861,0.2284456854045826,0.36603883488692956,0.6438989462241531,0.7036428526320809
100,0.0768010733391443,0.9195580694421338,0.36701031366322867,0.9909812352907996,0.8576863428155147,0.4614139892161993,0.221810301792812,0.3594116055989443,0.5450903316616236,0.6370010555373262
