Frame,Center of Mass distance,Symmetry,Grounding,Arm fold,Leg fold,Kinetic Energy,Potential energy,Bone length coherence,Torque,Center velocity
1,0.99999999518752,0.15401135489904924,0.8962191346751185,0.11699267439626125,0.0,0.2425904327244009,0.9806297247534022,0.9999987559118695,0.0410238747342755,0.09370738902015077
2,0.9901230455932766,0.16262528043601823,0.9041229910643347,0.12592282611934863,0.011066362747749622,0.2425904327244009,0.9806297247534022,0.9927882949226059,0.0410238747342755,0.09370738902015077
3,0.9849053051375589,0.15773514382163636,0.9126761045766216,0.12255916478302456,0.017328088136796812,0.2212634816466541,0.9863573182656848,0.9876363922403919,0.0016770702129073943,0.10615003456144953
4,0.9784285926556165,0.14516223516557775,0.9196115687172198,0.11615129521985088,0.024874676908796085,0.23436721673931596,0.9901736460656667,0.9834039296473692,0.047138205725972306,0.12050237511050815
5,0.9714043030679548,0.12976632263916213,0.9256210068360244,0.11311136785763438,0.034198254676338,0.2220010786565657,0.9926944102936289,0.9796010183436241,0.06776411419415375,0.13388683481928135
6,0.9670714913291596,0.11344966446994299,0.9305968931793841,0.11400594983728693,0.04256581767422756,0.1975826964923505,0.9953400959010833,0.9755008422246014,0.005984364045975849,0.20516649676989993
7,0.9611511837256033,0.09666810107950084,0.9344263700584102,0.11877392975220519,0.04998661505196813,0.20352210252916597,0.9980178683510302,0.970753714182375,0.0599279794414503,0.1924997190384035
8,0.9542707603529149,0.08256045167344381,0.9376621942818427,0.13227145560349823,0.05684103545068476,0.21368499876179853,0.9992263523921525,0.9656743722477326,0.054803284926626644,0.18835539054766767
9,0.9485729593044703,0.0744372350205149,0.9401038831563827,0.1469502987048274,0.06194486720602225,0.16809914488802194,0.9985526842122247,0.9607439828042605,0.03509836574387958,0.14127933785900282
10,0.9439796484626165,0.07060334148329253,0.9425761945016542,0.16269776496125954,0.06636105242879843,0.1365076765538159,0.9976564901589648,0.9560908235624966,0.009031399006956823,0.08575883981794782
11,0.9393627707942652,0.06796708198908089,0.9441941524120908,0.1738033105410133,0.06988628295492429,0.10984629396875244,0.996968519723556,0.9518511214258583,0.1259985417662868,0.08129940208545955
12,0.9381877234056142,0.06555369273421689,0.9444265110147845,0.17939368090693844,0.07060065692766831,0.0540064093062066,0.9964799812557632,0.9480107359081535,0.012591254629683094,0.051435750325417334
13,0.9372743147327635,0.06496418492947746,0.9447197096018344,0.17809474215381893,0.07082682220778828,0.04428025968131673,0.9965537571701084,0.9444490922082488,0.0012578481100960217,0.04581987761494741
14,0.9369510734381638,0.06227212792044819,0.9440999034664361,0.17595683595271727,0.07004832927943386,0.03723174048931106,0.9964385865506199,0.9411903181421561,0.034850079400630576,0.05438753448960438
15,0.9356879809959501,0.05876583402874007,0.9431943711667897,0.16949257969038434,0.06899658490943145,0.05426036449775655,0.9954851791933366,0.9382109351621825,0.006753758945185796,0.07752396026764426
16,0.9356810020772716,0.05382834085012283,0.9415568596132033,0.15937402285893124,0.06585814286637504,0.06521954832278665,0.9938664926993084,0.9354748452456157,0.04073056662931442,0.09803153177662846
17,0.936933272366024,0.04643862656892445,0.9390082042114929,0.14515675743304868,0.06041312731159443,0.09061116290516424,0.9912918951679637,0.9329522111859547,0.030262769252882654,0.12508069296055735
18,0.9411304872912576,0.03841963993174089,0.9368853901329313,0.12821188334934266,0.05345197457047226,0.08726781302722558,0.9886744133052666,0.9306737054222975,0.017532531802824134,0.11129034714716181
19,0.9469910969420239,0.030231529045907053,0.9350420060997933,0.10756261737231976,0.04377544294095504,0.10193533113881477,0.9862901884678259,0.9287142227580126,0.0008838352464917887,0.1294240530634672
20,0.952676546662781,0.025173348307528598,0.935015548902159,0.08572393577726718,0.0346599703940711,0.10489302147513686,0.9837670084548209,0.9271454258087392,0.022732117151317864,0.10728345566471711
21,0.9549897142805872,0.024481949451809537,0.9362471488073447,0.06631431565127113,0.02886754815183246,0.12546604294641475,0.9817022588166429,0.9258224691013138,0.0065994875101773485,0.09953368009379607
22,0.952898416787058,0.027948033462283244,0.9371253947114719,0.04803066236407329,0.027750363691585605,0.11973929175713814,0.979803063686744,0.9246661128515611,0.01713411959398333,0.09400760235146148
23,0.947963512403636,0.0328879163722452,0.9366429076025713,0.030006237047385434,0.028803493542027447,0.10908018353683362,0.9778626379976151,0.9236880212363934,0.02344409496952546,0.10398229496092552
24,0.9421831712849168,0.040174686987486434,0.9355296901582291,0.019354834237612622,0.030858593624287146,0.09962556640671186,0.9757769640030705,0.9227993401865789,0.010062922856989369,0.11175178869577167
25,0.9382124416457346,0.04677487159173317,0.9347084082204374,0.013698320953959987,0.03105424963038152,0.10320328753386616,0.9735742852511823,0.9220493655955174,0.0016595842102762133,0.12546345261667757
26,0.9349766238791808,0.05415475268357188,0.933421522028358,0.009374197116927068,0.030701607503568158,0.10992829956531333,0.9716896468373912,0.9213908853947754,0.002460369811329595,0.17408871568055226
27,0.9312537562098624,0.06277038066154826,0.9318925968303691,0.007211094857255193,0.030982810235038613,0.1141238117586627,0.9702538138609732,0.9208074961269685,0.004772598739677604,0.19694103482127867
28,0.9267729907758935,0.07259472028683633,0.9300294663173639,0.006459728442376013,0.03196139292263054,0.11756685933199452,0.9689505528278466,0.9202861990555675,0.022491636536451105,0.20553896372295624
29,0.9204306153607152,0.08509165972743286,0.928701978354425,0.0055309675692911155,0.03440384461328586,0.1342721292842621,0.967388214567563,0.9198429977498744,0.04111366757035506,0.20141740306605155
30,0.9169656440549243,0.09486097968172347,0.9278914952728106,0.004414759029546743,0.03506732218199282,0.11792984506149266,0.9658942120290064,0.9194456857721333,0.02483012325463152,0.1902138836418574
31,0.9136363585521288,0.10437493968282721,0.9268794014031003,0.0028666773470307754,0.035449552957677,0.10892910443638769,0.9648942358313332,0.9190493899600589,0.08285073849423245,0.17602630528814667
32,0.913018876143309,0.10919946279380717,0.9264056497975004,0.0,0.03460186134224988,0.08044545785611058,0.9642051354087524,0.9186832172246899,0.0198823519146479,0.12242594670498669
33,0.9155807950651339,0.10781801313806855,0.9264417006218278,0.010229341947242026,0.031593564894133626,0.0691003613649558,0.9637887172025812,0.9183718693864933,0.23395755826463363,0.0519232367321837
34,0.9222797818792641,0.10012180323256531,0.9260864953882816,0.025679198379921945,0.027955867801726108,0.13555964146835828,0.9641171515183508,0.9180799614924073,0.017793516383777193,0.0588011355962322
35,0.9281402764512536,0.08939556294295796,0.9259013239303483,0.03812002115015015,0.024117635701150535,0.12973368086441253,0.964469971518301,0.9178091097994079,0.17639317952871778,0.09393376414955885
36,0.936083308544158,0.07376958563011407,0.9260689086796499,0.0483383250118807,0.021250783311280125,0.19094806117580201,0.965125066407103,0.9175823208093736,0.0734860269677993,0.14405103238146588
37,0.9409357386669877,0.05945277578187442,0.9266767589385659,0.056399417405357,0.020069023326777652,0.163202396868823,0.965855729374287,0.9173675320151233,0.027627388839414107,0.19014878851505734
38,0.9451199919404604,0.04537773313989749,0.927516938874668,0.06172344571082072,0.020500262869824554,0.1791699704076856,0.9660912615291833,0.9171317587594455,0.025522844183964787,0.21569776454283313
39,0.9468741022495497,0.03271206218399186,0.9283352896943545,0.06463905515967516,0.022955063200346414,0.1635405262015927,0.9664938887332553,0.9168327702500033,0.011023419150278362,0.20979259805049036
40,0.9475523251162169,0.021096786643816996,0.9281747820525833,0.06605635000208104,0.025791783674983804,0.17799368353150183,0.9664247633136327,0.9163635810985643,0.00120113033909915,0.23085370918156423
41,0.948415679674655,0.011160010770157032,0.9294047717711785,0.06807277759348605,0.030015039706126623,0.17886880994538432,0.9665665987905782,0.9157324678777854,0.07819983845261651,0.22088802184888684
42,0.9483604080099148,0.0038235694677848497,0.9302227176337583,0.07190503561386959,0.03366293906714011,0.1536128711059634,0.9667637234321012,0.9148455309761108,0.0006258744422906056,0.17634037811680997
43,0.946972530180017,0.0,0.9308638707937782,0.07646359404184161,0.03799884938486134,0.16541911597508102,0.9659111808787355,0.9136654320410268,0.10914638487118829,0.2123862546941198
44,0.9470525232750311,0.0001416273079010862,0.9314064458238368,0.08208829637807749,0.04254755976747565,0.21620802913827672,0.9656822288529369,0.9121040179386996,0.13762169035696425,0.23807090654230095
45,0.9451322050803158,0.0035945266090194133,0.931290271343408,0.08988734492948629,0.046962819035846974,0.1637105611987015,0.9663510351465907,0.9102013603186224,0.0,0.17874748450896089
46,0.944348747953126,0.012398021408571124,0.9316414173640519,0.09960585560765259,0.0507449229483559,0.16761247876229188,0.967037162797543,0.9079768258934312,0.17942661843751956,0.18866508134257964
47,0.94040154621307,0.028820002538169784,0.9328925034195364,0.10902486773673165,0.055572498518212415,0.12875510259855716,0.9681340674348834,0.905475269724916,0.06095549484719312,0.14275669853962542
48,0.9373732173593403,0.05282488188088759,0.9344937038192265,0.11905889064276953,0.05993662583775036,0.15362922983471977,0.9698428249795459,0.9026759827896861,0.09437445148488811,0.12844623468692318
49,0.931855529266416,0.08610066097533753,0.9370514900395085,0.1282348159196734,0.06601877770073351,0.18972698973602073,0.9724017690603729,0.8996094126616967,0.18189749345512438,0.09124343171476267
50,0.9183512484075125,0.13142267997870333,0.9394769999134543,0.13530650233946806,0.0779434806340027,0.26344803520289883,0.9756135926052338,0.89629920892596,0.40298449150928645,0.11366813886636977
51,0.898043469521627,0.19125980447968566,0.9446741133599926,0.14039225296749197,0.09447315045896867,0.4182311596293012,0.9796576284536791,0.8927609041231455,0.0464338047102996,0.2040886314653636
52,0.8881609346319739,0.2555664317233007,0.9546150293395195,0.14294357116409448,0.10849102223308642,0.43297010360808386,0.9867214652165089,0.8890599127753667,0.15749752334895092,0.2735643509995593
53,0.869452089198184,0.32345075196584777,0.9650339007650867,0.14276935033622412,0.1261474357826732,0.513324080351874,0.9947366845272289,0.8852003317594374,0.3157013236676807,0.22811275036995932
54,0.8479794088878384,0.3780095323999307,0.972263677124778,0.13893807774495812,0.1455474301120662,0.41093286988894756,0.9995394874640219,0.8812409383494044,0.02013523214754654,0.1624919115407282
55,0.8189575462731337,0.4236401596902526,0.9751524482868944,0.13079304021802454,0.16711765782907526,0.4083906194654968,0.9999999852472742,0.8771544971255014,0.10386833728070897,0.15225159844504962
56,0.7912540393737065,0.4565062966100689,0.9752478735365256,0.12003015175993312,0.1854784117948163,0.35915282691827116,0.9965895701698494,0.8728788642804661,0.011408553111034014,0.18549577080259366
57,0.7659537336690027,0.48366564429831044,0.9763521433571779,0.10780772960296325,0.20184502095438925,0.374352142590977,0.9917737712388135,0.8682873373766951,0.0680561370331024,0.21896359058588635
58,0.7426858219444419,0.5087896071237762,0.9784476324728766,0.09501261223085625,0.21606046112695984,0.42427363074638813,0.986389624749419,0.8632883735642203,0.057360114732766275,0.23238457089345316
59,0.7226407995496134,0.5349797669115525,0.9829141936571844,0.08436945837779274,0.22878280952549776,0.48646196970768024,0.980829490284767,0.8578447365888642,0.14015901554553975,0.2159535788172444
60,0.6998588656222113,0.5627800304402912,0.9881728991512769,0.07718195332618878,0.24424844331085324,0.5776596711343315,0.9744044328050483,0.8519135385423684,0.2751910905468533,0.24602056275678036
61,0.6719803762129991,0.5909086409096396,0.9939366247247042,0.07811678931183909,0.26335758951102733,0.7089436272133226,0.96521099800822,0.8454445254694224,0.17326052549104629,0.30683710331998654
62,0.6404005177705209,0.6167758713116922,0.9993229495584065,0.09137453749623424,0.28597505099332077,0.8298033701842623,0.9526351416652091,0.8383731074703107,0.37692111403462175,0.34985592727469095
63,0.6010696940725325,0.6307539643913195,0.9999999896315444,0.14718120518111133,0.3100309180984941,0.9846194772534517,0.9338451864204061,0.8306127611226553,0.03102402856485356,0.47619353850171003
64,0.5576902281931011,0.631427142146779,0.9966915382794016,0.20358545598784406,0.3360287042562009,0.9661487722184203,0.9090406614619229,0.8222414108231741,0.3011714527845592,0.47547638889484845
65,0.5037729117242723,0.6227769306728916,0.986958794357282,0.25884882803966885,0.36643033606897163,0.9950318037391694,0.8797187409903591,0.8133449609194723,0.017078781793789237,0.5631871663239923
66,0.4438658358897703,0.6139602369027468,0.9724009286584244,0.30934718405436584,0.4027334133124313,0.9457579406488301,0.8464642742894637,0.8040459372892007,0.030762843163600225,0.5988919842558823
67,0.38148766596360495,0.6091788642182351,0.9516749925360687,0.35199827745545753,0.43891277074963414,0.9119447726209755,0.8118505014475055,0.7944101904894222,0.05032977991369592,0.6329454588001598
68,0.3235839979770325,0.6084237997738422,0.9273633444292175,0.38850385264671644,0.47149286287017245,0.8725250392508155,0.7766129123950035,0.7844803924135064,0.21948104466533394,0.5999955439341571
69,0.2743182952675354,0.6092845103707518,0.901757549827875,0.4192912235466463,0.49861389506643544,0.803427975873166,0.7420106633266498,0.7742562219358607,0.0348990736274618,0.5562840063456052
70,0.23061872612333528,0.6116634616422746,0.8746004416856472,0.44552283591798597,0.5219026971181366,0.7812158219229449,0.7081279631774523,0.7637750593480813,0.01707780742227169,0.4970866957886771
71,0.19260344110807753,0.6190128819006674,0.8474993622516752,0.4674495824767587,0.5421086991865374,0.7729742702310478,0.6745043372541706,0.7530955102398591,0.3150622849861828,0.4495097497551829
72,0.15553871538534192,0.6312648166835497,0.8185186551235201,0.48548435424932573,0.5619566226678165,0.8343817015627694,0.6399368713776229,0.7422954605714325,0.5402385250749695,0.5099835469713252
73,0.1205104023562567,0.6507073102154832,0.7872798011084957,0.49861916749256796,0.5808711936794256,0.9510104435811954,0.6019937890481627,0.7314672273722461,0.19374440631793302,0.6825596917126373
74,0.09279838534126782,0.6758771411839372,0.7571414565981335,0.5078580530601283,0.5961683074040977,0.999999997801608,0.5622982035780315,0.7206691266962694,0.5021213902846866,0.8777030213228291
75,0.06880673249137226,0.703769000149479,0.7296075744355124,0.5189426299466163,0.6169569328506422,0.9180568214384567,0.5260878404714003,0.7099420131921397,0.39455212358679725,0.921380831029724
76,0.05038987204719241,0.725174928123566,0.7025723294568783,0.5327009518755089,0.6369648544470528,0.8422264919495129,0.49362097448900133,0.6993161613228202,0.822787994002598,0.8433422111553368
77,0.0464073238669282,0.7447905799647786,0.6861169456373764,0.5454589601704719,0.6422995901451681,0.6635433173031,0.46792924982569783,0.6887524626332064,0.825333898677347,0.830448508409176
78,0.04805664320313304,0.7622702978961343,0.6773158682110358,0.5585773924562131,0.6418885601171272,0.503904217030101,0.45193863813020624,0.6782693784546586,0.14504124446754832,0.696311729059558
79,0.04329804290336351,0.7731903988010271,0.6658297708982387,0.5774480985892282,0.6500910365533017,0.5577790123250423,0.43701608706084055,0.6678911372854549,0.04661878989354598,0.5195704400525589
80,0.03639302892311232,0.7852398982493903,0.6542105583993845,0.6018947415354473,0.6635261264673825,0.5910816832629934,0.4178599615258759,0.6576117462771256,0.12115374642681494,0.33787506944033463
81,0.03108152690165138,0.7988650939989446,0.6387556211118587,0.6234070367415346,0.6775966083721353,0.6220211185217901,0.39743660177235696,0.6474276143762431,0.999999999839492,0.43149636104714684
82,0.025533405995071652,0.8085006826914993,0.6279758364859085,0.6381683184586848,0.6898770435755128,0.4493983688446119,0.3808967351566937,0.6373347456505174,0.45224685086483085,0.27757196507013926
83,0.02325721580165855,0.8138941967242496,0.6184479285459843,0.6453018679602518,0.6973093692552506,0.3465613817164441,0.37020459026090946,0.6273625882321368,0.17896178401668592,0.2623308454752181
84,0.023308768390260082,0.8169108719093884,0.605939420599093,0.6434497869495591,0.7038380048909153,0.37513156518452284,0.3597814378519988,0.6174964015418255,0.5408962686384308,0.24880608035594773
85,0.022975714961709373,0.8304136542223337,0.6023869536646866,0.6337186468176434,0.7105961469650917,0.37675351888853625,0.3520821831787583,0.6077257682876583,0.28743678757849495,0.22582419656836317
86,0.021473126119803104,0.8314528677124405,0.5927200972280025,0.6288807197728745,0.7190533758946781,0.3766837481425612,0.34681913736967673,0.5980682109548625,0.43880552662148004,0.17165263030215025
87,0.020133127064205388,0.8507677103661264,0.5902285889875086,0.6378218204588294,0.7270875488732427,0.36168004600181697,0.3423103349299125,0.588515020690921,0.16414163528960393,0.06742957549219944
88,0.019212777882815765,0.8683430149495973,0.5873689168860557,0.6487298071007722,0.733807092191134,0.27998013823398044,0.3425404886011671,0.5790702302008608,0.33384906895544436,0.14853658666899305
89,0.020176758858287902,0.8882729444618036,0.5778513257105152,0.6551567193128605,0.7391481807424121,0.3040099532148647,0.34059766885682996,0.5697247003309992,0.19532938552472226,0.2855129334769137
90,0.021534240274134846,0.9014327661950348,0.5655078763519269,0.6535300185501851,0.7442506675538842,0.3273198440228393,0.33418264524640423,0.5605043483621676,0.07220992137814247,0.4039470009133613
91,0.02297628213974013,0.9134888931116122,0.5519270805539727,0.6548395060470581,0.7494515226861037,0.3411950617880516,0.3258420864453347,0.5514113239605876,0.5268543438660224,0.41460771413007536
92,0.023701857994241696,0.9264261477489644,0.5446034987730769,0.660487651624936,0.7531754180089544,0.24383659987300074,0.3183887122210528,0.5424647787163954,0.19042438843721565,0.2521037467671009
93,0.024454778352402257,0.92802648444386,0.537114569148802,0.6639061440512719,0.75659482778762,0.17301847394808845,0.3126315106380281,0.5336682740361445,0.13711860754797428,0.20185242837960166
94,0.02484216522038084,0.9309774648937392,0.5316462019336599,0.6671077513596112,0.76050549079873,0.17110451247969669,0.3067191162705068,0.525025376052271,0.25894169373237413,0.17653808474569163
95,0.02386291430755357,0.9347878135873716,0.5320397431066357,0.667251440656984,0.7622294894703551,0.12389981521572559,0.30359939930459673,0.5165460894132535,0.10044227495216715,0.18254415342981223
96,0.024273812058783806,0.9458135917622243,0.5322477367900793,0.6652543642880712,0.7622258011265868,0.12596980888844111,0.30245043794877413,0.5082193170897912,0.025473022126429334,0.07440951663949127
97,0.02358419412022356,0.9653033471615983,0.5308944858416889,0.6686495068445045,0.7650400916117226,0.1727435936169114,0.29977041622269657,0.5000239698811331,0.026532908563478178,0.04928378980012085
98,0.0201173357669822,0.9745210911165669,0.533225380380217,0.6699174500413823,0.7675959984628622,0.15828001558799734,0.29754919889733095,0.4919753318031267,0.04831062450690038,0.17160333572654368
99,0.01844715743657797,0.9796392747868917,0.5367008765388526,0.6701239566367774,0.7672214715019826,0.1270328490406943,0.29758802555248326,0.4840801060071452,0.31530791222020105,0.1912153541085008
100,0.016783025609660124,0.9999999881148559,0.5423157032408994,0.670226821531059,0.7687203041813849,0.22409503883222248,0.2976793459304571,0.47630488588329795,0.5362031951155343,0.3057539832937661
