Frame,Center of Mass distance,Symmetry,Grounding,Arm fold,Leg fold,Kinetic Energy,Potential energy,Bone length coherence,Torque,Center velocity
1,0.39393519637647784,0.3748292517282067,0.9021682701421698,0.09520080729935236,0.11007957770399834,0.2915673423573163,0.9389501304235544,0.999998857891376,0.2201785621912446,0.13805880612383142
2,0.3893453211846327,0.3845121970426309,0.903958411294962,0.08441490015951206,0.11540608080164846,0.2915673423573163,0.9389501304235544,0.9856608310771972,0.2201785621912446,0.13805880612383142
3,0.3831675503731859,0.39860821355986964,0.9052413016966983,0.06939123184540644,0.122193433872606,0.3625759618283146,0.9356551461969117,0.9685450776797805,0.12672337870222622,0.18752751124223704
4,0.3749212861772993,0.4156091601768907,0.9042411550398154,0.05224847001281957,0.12968906300557992,0.4056189734485083,0.9317268865083039,0.949649067547598,0.22710962614005614,0.2425302252547177
5,0.3648070498182488,0.438644737599149,0.9021207831173071,0.03517674208648846,0.1372281880058403,0.4647197512312923,0.9255874419448176,0.9294031243750365,0.024609087989758707,0.2518754760997518
6,0.35354666694834186,0.46728511975998654,0.8998170895312755,0.016874807555856443,0.14655894698908326,0.4629484768632601,0.917078066805099,0.90772523781621,0.18046366610238115,0.21061300822729295
7,0.3416047046479343,0.49551998534313346,0.8942963926638844,0.0,0.15592568092265438,0.4179105856501931,0.9075807726696373,0.8856889313002504,0.5837445656457351,0.20443135844427285
8,0.3314662690766651,0.51702717373631,0.8864708892903308,0.011072809613016706,0.16392705677955954,0.2824365437770013,0.8973214345175218,0.8643301305718317,0.44720912429346943,0.14893333076773582
9,0.32443038433661325,0.5318499010689399,0.8795984213873992,0.021204940412312183,0.16960641906252927,0.17593701053597569,0.887625031796221,0.8443308766131006,0.38747440610811273,0.09484676025085724
10,0.32049875023574936,0.5410280206515626,0.8758619434781367,0.028722641550031066,0.1739680964928857,0.09047484166348979,0.8813506771675439,0.826110294117584,0.023016243743050686,0.05569290584699906
11,0.31873321629441764,0.5455096142169334,0.8750755906028522,0.030801496754937135,0.1778473107418625,0.05571174336106868,0.8793248850033263,0.8101127941759939,0.12016586829392206,0.028364352322421935
12,0.31891778747134975,0.5442725284411174,0.8761395531947143,0.027557448860695163,0.18036152032979566,0.08083600626020998,0.8793980465801665,0.7967042744436332,0.12635900274601525,0.036975036923391054
13,0.3210075485684454,0.539220603150935,0.8789760363121164,0.019993740745775614,0.1812697134966092,0.12117339363790683,0.8804784070430738,0.7861027869817296,0.2638243504962539,0.05214688841312732
14,0.32539564557713324,0.5294275822254895,0.8833196723599203,0.007265239802628759,0.18015303016982942,0.19361260084417198,0.8829457635232643,0.7784711910289902,0.40808550743343236,0.09557693777013282
15,0.3328537817551708,0.5144005977928912,0.8889137051905577,0.01929610065962651,0.17614434481503255,0.2986539414053144,0.8872092284787856,0.7738113960905707,0.3317647287212302,0.15808009677508245
16,0.3429401577217087,0.49615189316963587,0.8953654746883486,0.03922125640754552,0.16939439013328184,0.38154142258314816,0.893769265788411,0.771980954358122,0.5448932209081536,0.20179575279100279
17,0.35580578504939514,0.4743484191061548,0.9008011882447631,0.0626616352456205,0.15918424572768003,0.5238020259599854,0.9014953366092472,0.7729226951018351,0.2565462533168333,0.3043650933043112
18,0.3695456467066337,0.4518435345066197,0.9041048314460807,0.08670432516813134,0.1458588963527417,0.5974589381453699,0.9090127147482758,0.7764307427990819,0.14020693267857867,0.3381888719960723
19,0.3817638447722126,0.432304734537553,0.9048201398789127,0.1100368074968297,0.13086830703937544,0.5668563860878817,0.9145504972632804,0.7821026541718932,0.15396888110941578,0.32498946290692066
20,0.3918880374668259,0.413748726155518,0.901997263578455,0.12924890171746142,0.11457886331289317,0.5262834675557597,0.9173057420212976,0.7894971661719752,0.29481835945877666,0.2652806674388163
21,0.3990847917469533,0.3979411515442023,0.8958559440633984,0.14402502552816512,0.09864651589098217,0.45394052370537774,0.9166974495973266,0.7982763606087409,0.25426455938489384,0.21854891444632696
22,0.40419757860022065,0.38670898514541524,0.8898514626395798,0.15696792351894026,0.08491792830586088,0.37410970844192215,0.9130379616166456,0.8079340648481367,0.37759958069601773,0.1826950525540398
23,0.40874641540086626,0.3804754812287038,0.8865442580938434,0.1736737131478523,0.07368236302750714,0.24489232328674393,0.9096108885784869,0.8180082961450098,0.15678776138315795,0.13126106702742954
24,0.41329111269397756,0.37624677575659005,0.8843266461432451,0.1861997444593151,0.06311403512351921,0.17760393310046393,0.9075486903157068,0.828184116572269,0.09671691587289499,0.10790336939777019
25,0.4176749546836949,0.37313501434139984,0.8820525197435098,0.19640741551801408,0.05215185382226782,0.1356306906982876,0.9060802488156915,0.8381219038491743,0.009291124167756591,0.08692098893141625
26,0.4218853161701278,0.37010586612697416,0.8785816575558411,0.20504726215267782,0.04005670923584916,0.12266178990129908,0.9046446842120551,0.8474736515904673,0.010793140245824924,0.08497450149769502
27,0.42574604428605306,0.36748914808013894,0.8735954834560897,0.21178040274374985,0.027008898599598197,0.1350679336492412,0.9028412082425451,0.8559646128246302,0.010078595777969834,0.09796979394550794
28,0.42860515122402704,0.36763690287479356,0.868362126146355,0.21469388953482066,0.01664951113989486,0.1442497599554041,0.9006818787280954,0.8634327290553296,0.0,0.12161345113290867
29,0.43015937628074435,0.37123840368933436,0.8629829635282622,0.2149517259643818,0.009554109824888081,0.1433484384096716,0.8986546287564507,0.8701147906710138,0.001357969610400336,0.11164050551188384
30,0.4313827389898106,0.3774133761448032,0.8585485168466982,0.21516122776891528,0.0044911143335371025,0.13347404859762949,0.8973331002063403,0.8760900052990099,0.002180086119640276,0.1186171215049648
31,0.43163772081379287,0.38696030833174816,0.8557064034481097,0.21602949158429724,0.0026137132543697693,0.1269297422226764,0.8971611038361837,0.8814868146178254,0.04509787883664158,0.11294691920692022
32,0.4312460832027776,0.3991706655703972,0.8540539505845569,0.2187088062288425,0.0026802381122490817,0.14166466931304586,0.8976469136641013,0.8865064585455418,0.10808021469191606,0.12668714355259117
33,0.43144797313495,0.40870403476128925,0.8532511994697048,0.22116203345416616,0.0026187417074090783,0.09683045438305779,0.8984574551957479,0.891237334739271,0.07274593108770774,0.09526095348130487
34,0.4317281434854315,0.4181102557598743,0.8537553012041283,0.21909203285139622,0.002288909887446771,0.11691039539697458,0.8996140200440345,0.8958016783273792,0.060024365729969345,0.09526825002500892
35,0.4326556156881436,0.4241391994003921,0.8543587930918448,0.21346342634796764,0.0008833551381510567,0.08666675075748588,0.9008547882799861,0.9001917169726014,0.04381003197490915,0.0741617145051375
36,0.43321298914122797,0.428841906717141,0.8549602908456224,0.20809899836680038,0.0,0.06270942488459119,0.9017088122798453,0.9044197914898332,0.04713936813599988,0.04663064183920495
37,0.432979010959657,0.4329256574732594,0.856014974237836,0.20342513738210308,0.0009534094320529804,0.03989098625982883,0.9023616656135185,0.9084684632383546,0.07952392513229635,0.01948613731215236
38,0.43279327337832724,0.4345769352146815,0.8567926399504926,0.1990101145580748,0.00192636140218805,0.006936825668602246,0.9030951966368844,0.9123075778559413,0.02909584479099696,0.0
39,0.4322031641281372,0.4352913211297542,0.8575098868712575,0.19667409163832614,0.004149865240161943,0.01945336464766535,0.9037098993677871,0.9158920966987973,0.15361119243541374,0.02671297171106787
40,0.4315552722986026,0.43363419615822085,0.8569874639172375,0.19753920894364696,0.005916187979114935,0.07586599244446224,0.9040467574559901,0.9191215757485277,0.004757981963970058,0.06702031933293141
41,0.43034242373147025,0.4323449796551317,0.856763969485908,0.20144074178419744,0.008647068021779898,0.07684710491115468,0.9045052761489834,0.9218469913593259,0.25572603802947214,0.06866587016584277
42,0.42850527604544236,0.42813117257397637,0.8552465813392208,0.20660525202499805,0.012568096437875096,0.16649553356205035,0.9055706544905532,0.923956338466117,0.036626142255474746,0.13114308889093534
43,0.4267268702353461,0.42321717571822665,0.8554971762879662,0.20825874116680765,0.01792642839524911,0.19679379037728323,0.9085986569323673,0.9253197560405724,0.06867785914799068,0.13703079657262984
44,0.42573976761992666,0.41641842637406945,0.8580377302936528,0.20375395937568092,0.023694680766008124,0.24394261129417194,0.91524958518966,0.9258039974226902,0.05161855985526253,0.11643671748728968
45,0.42603250154733685,0.4103145286627428,0.8594738697974091,0.20333095557795586,0.025665021620856612,0.23296435275834287,0.9231289691999709,0.9255050220882719,0.06881359837345186,0.08904508100609618
46,0.4262222879432806,0.4067799676950998,0.858964964261831,0.21521280977075902,0.026152156790731223,0.19388235631573025,0.9295451574516668,0.9245935521031524,0.23437232733468902,0.09177905582780545
47,0.4252869599330398,0.41241332284563204,0.8591799229606483,0.22332798751791588,0.029100991710927247,0.12208943626868453,0.9346121261702576,0.9232321066233301,0.010796925934350032,0.0742644739897106
48,0.42229916372224585,0.42072199750896255,0.861105750058674,0.22997545379248432,0.03729933615934089,0.12222954444866593,0.9389505230623638,0.9215158250111259,0.42830047869089727,0.11472882914844182
49,0.41797726495319704,0.4459573283329073,0.8696593166595432,0.23135234170149283,0.05286136946242049,0.2587372275328641,0.9459894023696831,0.9194278651530883,0.04957005236529257,0.10473951404647047
50,0.4115044261125379,0.4764429032010316,0.8787538938050773,0.22928352170212554,0.07404347367144075,0.2964401715491869,0.9556345773844518,0.9170540740841658,0.15143255127782065,0.10468176152925915
51,0.40563406713870565,0.5095066234451088,0.8900348755260645,0.22347292163029572,0.09456544652883793,0.34860511351886236,0.9648976892462446,0.9143501450581276,0.04157632902170969,0.09080515216589534
52,0.4015941776909498,0.5396636226099801,0.899895760213313,0.2164490156054582,0.10895972395455358,0.33024922052518335,0.9731460634507152,0.9112198810632178,0.016464511434306862,0.09277319028251843
53,0.39902066695798283,0.5688453544238229,0.9102975861157755,0.20719202350659865,0.11969524865487144,0.3433711707215426,0.9803930396519072,0.9076193949783239,0.12498333442339248,0.08809271099296125
54,0.3967871261705665,0.5994956073433862,0.9223246403011468,0.19531262780670064,0.1297205186424162,0.40143568978167476,0.9874469316729295,0.9035042403276523,0.14882126946441568,0.11160778531307673
55,0.3932828703210274,0.6353585676325755,0.9366326370659402,0.18230062369297895,0.14325823498068913,0.4777663948430242,0.9939682430150929,0.8988531222391019,0.15512116537299628,0.14327426934577095
56,0.38740253200306124,0.6705978015697668,0.9508348443866875,0.17113815990185738,0.1605840582850028,0.5370297782149933,0.9986064763197746,0.8936155451728242,0.08473657773287041,0.19515289357857116
57,0.37908490110011384,0.7041701066717246,0.9637129504205905,0.16299414326945472,0.18102159449758365,0.5863529812782116,0.9999999858956194,0.8877336003779032,0.033840720751645806,0.24820580009294108
58,0.3688664320417518,0.7304934912895958,0.9734291299483974,0.16082735013754565,0.20185283713982993,0.6056076076004195,0.9968709883262497,0.8812184104507029,0.04993818426154143,0.29172582703721817
59,0.3590654057500712,0.749917204290599,0.9821624951820149,0.16652995717196856,0.22107941317500043,0.6127242878646475,0.9905917224332073,0.874111597821088,0.025352171800797883,0.3061331686379068
60,0.3485771639544345,0.7655619192622595,0.9907021940682699,0.17677649859684308,0.24102181458088573,0.6093036975884658,0.983012573862597,0.8665276705975061,0.06284334037390388,0.28312760851403684
61,0.3356416365255272,0.7790569174883578,0.9965937816037973,0.19020196852059337,0.262229062454325,0.599054677757555,0.9730399031774631,0.8585325816620094,0.03700322494753389,0.26375636895627164
62,0.31992574587211553,0.7915570254638316,0.9999999922541591,0.2166521407880385,0.28612092995250327,0.5763871722644812,0.9605293810131862,0.8502075131957654,0.038506264335624825,0.2269993216589169
63,0.301347057376959,0.8003708083683868,0.9986631744864751,0.2519218042704032,0.30951478544735683,0.5633503869080646,0.9456016902120383,0.8415403440370542,0.12816000966941093,0.2507836440533423
64,0.2828243608083619,0.80841464034981,0.9940084571930431,0.28459492386515955,0.3300061156164639,0.5025499913239071,0.9284410330389281,0.8325652582460678,0.17558087949195417,0.22752259750529183
65,0.2623972527546731,0.8153918900611198,0.9859516415803556,0.31256856764535185,0.3494944496825962,0.5315764050440173,0.9084077429449868,0.8232264314251831,0.05539977024863584,0.2500452916282348
66,0.24196265142397072,0.8236771462910085,0.9758369271781455,0.3367570723644013,0.3670784863000693,0.5308502763506058,0.8856225226666143,0.8135479616040401,0.20490441250758876,0.22900434669952793
67,0.22169300166443956,0.8334137578550777,0.9643545178602272,0.35540759181212156,0.38275906553612804,0.5683256835868495,0.861228773530909,0.803545119764246,0.4798142567850745,0.20467203867452324
68,0.20030730621509604,0.8493216949985742,0.9522808086034026,0.37285109344835193,0.398916269132861,0.6456355120653623,0.8344861037165882,0.793279988526675,0.5798896232306082,0.1961882070869537
69,0.17865521463237755,0.8709437442071463,0.9387425475392184,0.3890330712542091,0.41356742612967706,0.7392765448804415,0.8042160853863344,0.7827933998840885,0.44375305315961333,0.23564992231588497
70,0.15743229303049172,0.8976438961227017,0.923965996803657,0.4052542302705749,0.4262082084956736,0.8049464173126307,0.7702272990882816,0.772160047669082,0.026335758156105712,0.3052353024964532
71,0.13546827206632714,0.9266255057783113,0.9063451798076146,0.4218996531707309,0.44129612318041234,0.8100943305475312,0.7346627120323429,0.7614729249589022,0.40880262334828404,0.3867346450561058
72,0.11409031773265012,0.9530211078771155,0.8851887067787761,0.4361607898501659,0.4576014270574903,0.7537759367135025,0.6993205345735483,0.7508147314156763,0.8565669952636787,0.42184154757337766
73,0.09679235203250887,0.9737905947841369,0.8646932353293022,0.44875946861540217,0.4720333789299841,0.6354128420906365,0.6669081580824584,0.7402693933825311,0.6587483495482884,0.4253350193194905
74,0.08393480305804207,0.9877013207152564,0.8458675965420145,0.4572990962407755,0.4821671153757163,0.5419153475809859,0.639659152659335,0.7298742960492035,0.9999999998138881,0.4086807682920439
75,0.07595724717083376,0.9959584197350175,0.8320366922171899,0.46402019669051403,0.48787850726453685,0.39801297282000797,0.6189418327471902,0.7196430277155115,0.4270945773557457,0.35434830156809455
76,0.0700101325314409,0.9999178820886365,0.820677433897359,0.4713157030211786,0.49155682555627034,0.3343283144624346,0.6037468957601084,0.709558223790975,0.08540109176271515,0.32251762899865644
77,0.06418810634307966,0.9999999937053345,0.8113452957398254,0.4791168646821525,0.4965247128507853,0.32599532640642875,0.5907536483317077,0.6996439522439628,0.156006034190381,0.296560518838291
78,0.05816613796570583,0.9977706866370307,0.8034825624512055,0.48925766890635025,0.5033736259555214,0.36580243021057735,0.5787446198906612,0.6899072833607047,0.7246525174481833,0.30191729142070317
79,0.050081046547349,0.9926593716497913,0.792899283131472,0.5032279762565087,0.5133184653046811,0.47686005633844425,0.5634227044665395,0.680344247930818,0.14290506601808653,0.284718083896994
80,0.04049295873685898,0.9871001129763973,0.784150731099216,0.5236769878671191,0.5294340457503008,0.5371779253618624,0.5448679922956349,0.6709478257354439,0.08868425844448784,0.24449859255017467
81,0.03227866012183152,0.9814763368974103,0.7700307521560065,0.5454693888436257,0.5443784723305642,0.552588503308647,0.5257782583702919,0.6617136350211266,0.6317459824745654,0.31311000472500844
82,0.026098410655781626,0.9739821485123997,0.7559620040280014,0.5705055070521885,0.5564716635634174,0.4792041165671758,0.5073078076427948,0.65263173059764,0.16049817642812367,0.26755593304184805
83,0.020504643552020852,0.9638547572293377,0.7399705239970558,0.5963930010236324,0.5673836845805846,0.4429595537117831,0.49087788134090843,0.6437097197181383,0.8501503563972842,0.28108454937798016
84,0.016989312611956905,0.9550361286134649,0.7285620198736638,0.6194059143254615,0.5746575353891346,0.32642415691506105,0.4774353158133053,0.634939566480318,0.13479691845943906,0.19679049700021756
85,0.01461131326526988,0.9483438164094165,0.7166106734485388,0.6380578414732837,0.5801291239149068,0.2869187080057396,0.4648469306825358,0.6263122628885845,0.8190091799169145,0.1709447572605654
86,0.01171817533129432,0.9431899527723578,0.711643488320463,0.6484183162825363,0.5870445212122274,0.2072917794543344,0.4536041056614724,0.6178238626948528,0.1378413965288827,0.09310958183934018
87,0.01049850550603527,0.9460386202347644,0.7077717887908412,0.6469894284336731,0.592183869917327,0.23149698427375828,0.4454815839829887,0.6094532303710638,0.3466821059593122,0.07027912021977918
88,0.010022880857335463,0.9529861624906634,0.699551446897286,0.6322680307817147,0.5955514394828643,0.26304616010157705,0.43427861429335,0.6011727407586053,0.12745179036475174,0.07544108854494214
89,0.010492499353139206,0.9699698835394679,0.6930445276458628,0.6042227468899912,0.5992816297089242,0.2687676700843434,0.42338670161890396,0.592950540376453,0.4641919848618693,0.17781065644497626
90,0.009772927743139996,0.9862054214622697,0.690257870510057,0.5765437524871867,0.6029970223063614,0.23271612391607913,0.41763671029566496,0.5848009938264619,0.405506697399649,0.04464748534559774
91,0.010211803009684762,0.9983225264141896,0.6826986615569312,0.5531547845859597,0.6048856895599148,0.2653342554485716,0.41433519862446044,0.5767662051084692,0.35498567954183563,0.24207527651979505
92,0.009005807963608987,0.9990628203175412,0.6729440881090687,0.5332113703115443,0.6084731752470084,0.19745340430301764,0.409924417660726,0.5688750160917889,0.2072502935926578,0.19602953452717609
93,0.0090813210865266,0.997075323291743,0.666580483779153,0.5239763870405985,0.6098377511233802,0.18496191690593233,0.4067635366268899,0.5611642846864644,0.31563249582676056,0.24284732534020478
94,0.00698836539160834,0.9876175250637369,0.6604549713788731,0.5174007522649301,0.6148426814957265,0.12992542553048902,0.4028974245961195,0.5536507792785129,0.030360770233536855,0.14613148866861236
95,0.00683493628921566,0.986515467369447,0.6542246693382058,0.5161620282625019,0.6176153016676988,0.11934429095567255,0.3953863809948974,0.5462906362783926,0.5778857179694225,0.0747886794265398
96,0.006763085327850587,0.9867869498367432,0.6470390804442256,0.5163421742504344,0.6211613049609919,0.21199984904747624,0.3866939276776425,0.5390680705885903,0.9775073855785601,0.07541132901640765
97,0.005771056397274545,0.9874569686429288,0.6444258199137274,0.5131652877048235,0.6253172955871759,0.10477247384126871,0.3796617676946642,0.5319719911186783,0.42771267552692877,0.03423866161193726
98,0.005541796118833618,0.9871859195448734,0.6429637785622695,0.5148191323951218,0.6265369366238303,0.026277401339931377,0.3768237762443503,0.525015043725281,0.813172971601053,0.023265936503077216
99,0.006016426892113311,0.9880200893999178,0.6364910277833228,0.5149673261942801,0.6282895406326557,0.14764634901482007,0.37465419765727126,0.518197630997201,0.6135413071633298,0.1675658557147564
100,0.005775366993371309,0.987184883720891,0.6329962761264842,0.5209250738560244,0.629972769096485,0.06226424805636534,0.37058033013731106,0.5115070929564992,0.28037382723556675,0.04709691061427765
