Frame,Center of Mass distance,Symmetry,Grounding,Arm fold,Leg fold,Kinetic Energy,Potential energy,Bone length coherence,Torque,Center velocity
1,0.4174061585798051,0.45164572617372184,0.01689961467795089,0.19659201356398212,0.14108670715764485,0.0,0.8113042316279699,0.6373947814446077,0.02145804152014156,0.002631355355467638
2,0.41513760230888896,0.45060582520341635,0.018205919728556057,0.1963586061569824,0.13801921932062755,0.0,0.8113042316279699,0.6402745704717183,0.02145804152014156,0.002631355355467638
3,0.41326609889013144,0.4484029216362597,0.01930164845260917,0.19654312554001704,0.13552289681200888,0.00836165258049291,0.8101441464185095,0.6436504978362946,0.0328163320570441,0.01215426543241746
4,0.41168885753473705,0.446029993818812,0.019695014655569925,0.19671773382741892,0.13330107608785768,0.025780490291057855,0.8085892455594039,0.6480244868966142,0.03940187624046529,0.01914537465275369
5,0.41019946817940134,0.4421194120732184,0.019999224459589116,0.19708589815000496,0.1316993669818648,0.04567714216072291,0.806514672476148,0.653152213330496,0.0648038419585585,0.034743600414842195
6,0.40882663088410287,0.4366473550288891,0.018810262576835088,0.19732408045242006,0.1306200094119731,0.0812379501760204,0.8037241196914101,0.6589313036012665,0.0484419223028334,0.05243547966641998
7,0.40741898970364254,0.43080374258376103,0.017040329970091334,0.1978221275727581,0.1292779549760289,0.11215495979049599,0.7999525040158135,0.6656304348762305,0.08378649146487159,0.07227056372700612
8,0.40550662901460416,0.4228298123973793,0.013279735480587286,0.19922055291728163,0.12811804540327754,0.1589422384742144,0.7950744824174608,0.6729999668159812,0.08898074473275115,0.09648843739501957
9,0.40372817773263914,0.4129647287744053,0.007456796082553933,0.2031342388255863,0.12561204286058378,0.2154243356455663,0.7890561257249207,0.6811169525969765,0.06565419850451773,0.12076586426736526
10,0.4013963352195116,0.4015096291693505,0.0,0.20768570379309606,0.1217673987466281,0.258570056022648,0.7815244764803116,0.6899830741322756,0.014301136159115812,0.1464747999971626
11,0.39820459613962855,0.3895253779595447,0.005992979662710485,0.21665385682263344,0.11601781804501791,0.26798749356873,0.7732414861733505,0.6996030120283312,0.13084925843328127,0.16484006232658638
12,0.39466626009333944,0.37355826844052636,0.01569781879194161,0.22655169382606186,0.11094453671989522,0.35358905993233836,0.7639909301123065,0.7098496960703826,0.05584597693101409,0.21677726146172965
13,0.39079276030322285,0.3553430749725914,0.028151874096485813,0.24144105942564553,0.10742328358429463,0.3914281417288234,0.7523711321036098,0.7204569855679296,0.009687409127223018,0.23862023922652043
14,0.3861069991037201,0.33748430278093816,0.04102966140531952,0.25559985310385164,0.10447864370126392,0.39105962336564926,0.7394351723434907,0.7310788602161276,0.10640129664409498,0.2461723233734509
15,0.3814572628804147,0.3244276023122291,0.0519949680044855,0.2670187060903226,0.10107743547865272,0.3033301421376595,0.7276680333189948,0.7414273368333565,0.05654368197381643,0.18983423085339893
16,0.3783258353845903,0.3142727439856959,0.0645179517089104,0.27732272770951644,0.09879566401416998,0.25689795600486875,0.7167404317739909,0.751525855449039,0.08735042731280701,0.15947757457996825
17,0.37645218458598195,0.30704011438096684,0.07407439591734606,0.2860708850695172,0.09639876086727722,0.18224269797011297,0.7065048451845086,0.7612378576121706,0.06362000911445867,0.11783118232049597
18,0.375915945418232,0.30055370515251006,0.08211954806415446,0.29448642417737037,0.09395965965180311,0.1240384149738882,0.698356776402043,0.7703281902277074,0.05680480838946418,0.07128518790679182
19,0.3764150864114441,0.29570786670151,0.08880124478774355,0.29960118501764804,0.09181958774315972,0.0731159260027244,0.6918348505086095,0.7786865816312364,0.010471278700434053,0.03825488616247118
20,0.3780280502443181,0.2909923324404254,0.09483346434508066,0.30329047493983974,0.08941754800221913,0.053213135065978426,0.6865582678441003,0.786306891471932,0.008665796968197463,0.025904559144062134
21,0.38047913712528997,0.28600301394074434,0.09925802104851679,0.3066411229506996,0.0856393865622659,0.03514745165671932,0.683088887801662,0.7929898293308352,0.012394677706365516,0.014983956818051244
22,0.38314818950310053,0.28187708714269605,0.10332495676898429,0.30968740341351175,0.08354631108105692,0.04012274172647573,0.6813453459478591,0.7988083410839044,0.005180179892239401,0.03537999140133701
23,0.3852668353979185,0.27868938043993124,0.10672476667532424,0.31213510216007895,0.08340521071401652,0.03890891769952892,0.680569407334631,0.8037218290401517,0.025127937692853704,0.04456064082716076
24,0.38620066629472194,0.27677069108516583,0.10818699913118474,0.31203024712278965,0.08534485140247867,0.051428433036547386,0.6814121316362247,0.807889333456482,0.002213117634879156,0.06257313448199206
25,0.3878094678100444,0.27651781800399106,0.1079654345954723,0.3082420138098265,0.08745615700949882,0.06081537252472044,0.6842968591278954,0.8112268699955422,0.010957053388514004,0.06653165803671049
26,0.38849123883393183,0.27708835284806727,0.10667748145543998,0.30264706886479015,0.08985657920618603,0.05655169155811523,0.6882698853243367,0.8140132797170723,0.006109768969310273,0.05617950622327745
27,0.38847734341928103,0.27790957452268217,0.10400613052597693,0.29971500757121544,0.09258848302728681,0.0471774550173985,0.692424077630448,0.8163204746373001,0.053221802891587136,0.033381441241098084
28,0.3883366342990972,0.2809050386501906,0.09820114488363546,0.29549130165495885,0.09442832010606686,0.07869858029366661,0.6980399341225455,0.8181267957272885,0.003932362605438666,0.04641580185624072
29,0.38844350962799934,0.2834034984012901,0.0934792097618279,0.29181201455134176,0.09537192169542015,0.07036724958236693,0.7047459938853573,0.8194207244224001,0.015260587320718144,0.04284679313513678
30,0.3876417677479761,0.2861519089796685,0.08752360905245261,0.28755693839711827,0.0941396412969162,0.07976567890043618,0.7115548187244871,0.8201728956288465,0.06475235360438668,0.040134444228279685
31,0.38788980880912693,0.2903973653444388,0.08010575857613504,0.2809694387634713,0.0917540469227968,0.13236522055278918,0.72054781396616,0.8203440724855396,0.07466254537523832,0.08516381845257665
32,0.3876837231233521,0.2927723992468673,0.07793541632003094,0.2745671802660726,0.09011869198713693,0.049494655457478866,0.7269139210509326,0.8201319366530379,0.016240071971868147,0.011877140116175253
33,0.38747999162243807,0.2937576878323409,0.07295303597283127,0.2675754029333578,0.0911700834305673,0.07241868104984543,0.7312104215007759,0.8195117348017665,0.08886993612946992,0.03379006332014464
34,0.38703317756624067,0.2960991090144697,0.06118491930053987,0.25741075937434643,0.09517665490962242,0.14012408522625305,0.7403204216085506,0.8185272335621283,0.036045031873904496,0.035509234257716085
35,0.3856513875621202,0.29861974188277807,0.04586510529036379,0.24582787957137583,0.09979835950816764,0.1753836930307332,0.7528323685260256,0.8172119883106714,0.037775966187822585,0.023294853929450514
36,0.38211134054609547,0.30095849666496094,0.032109555252064235,0.23609365162625498,0.10232969517769125,0.14837259776600636,0.7642472977026867,0.8156569485436358,0.041175869317235624,0.014220286569035692
37,0.3783043358746451,0.30393081392478666,0.016142804476887478,0.22450766417799045,0.10187276975225569,0.18523973031761495,0.7753462259927463,0.8138645167321117,0.03503281256853504,0.0017524217421841203
38,0.37369904411223986,0.30787742037222876,0.002519736147456381,0.21214628158970258,0.09966544217563322,0.22372862743540578,0.7888938859142048,0.8118249772685578,0.005537669888570841,0.020405231448338376
39,0.36827077180285867,0.31171627012528524,0.01832374544281184,0.19781865211653385,0.09476274108766594,0.23277055776575784,0.8024981163114097,0.8095361462534983,0.0035732665962523147,0.019998296037823812
40,0.363165602867333,0.3166764642001947,0.03241621673804065,0.1800805247390248,0.09003135376792457,0.24099537990521597,0.8143027155639447,0.8070033681634599,0.01969017768912776,0.05234550879894117
41,0.3584537900049935,0.3243586350330053,0.04681724508270084,0.1579557196186056,0.08659551163974548,0.2557190560601765,0.8251769343788196,0.8042336756399469,0.007302051695553311,0.06686893434723475
42,0.35272853439060703,0.3336554989037589,0.05868708599930665,0.13364863874973193,0.0942493076699666,0.23086561687256102,0.8342338448398874,0.8013364322107863,0.010335000247289172,0.08097304622286491
43,0.3474099428706083,0.34321566684485977,0.0706213025012848,0.10688708856786798,0.10116240068373589,0.23473849578036876,0.8414587209757443,0.7982707842966729,0.006738467905985719,0.1176343729301251
44,0.34270880477121207,0.3525005956073206,0.08209244323785617,0.10617152704508864,0.1068747836809175,0.21968973304076592,0.8482633545191807,0.795078220401888,0.019574855068982076,0.12072087157094782
45,0.3386252782486879,0.36032626986860605,0.09180623219636797,0.12410199635920312,0.11146931543273698,0.2108765736037076,0.8536990864154164,0.7917358503189913,0.010846239816224778,0.1396421834269224
46,0.33507499734628227,0.36800891862277096,0.10319775277617375,0.1428258516626262,0.11757901556880382,0.21776837880905187,0.8595356025317866,0.7881434933346617,0.023373820889792313,0.16041674679485624
47,0.3307201712455865,0.3730214120446815,0.1130363546343251,0.15574238096977205,0.1251073613382993,0.1788975146607893,0.8654828433643067,0.7842994366352402,0.030671489185352733,0.13542544614949484
48,0.32729347635703143,0.3771446341717691,0.12167207649997064,0.16928404732403052,0.13284804249153595,0.1578736663398736,0.8706053627051168,0.7800815858683414,0.04092141818280812,0.1203306814951476
49,0.32283336853288,0.37679287014786744,0.12634755949770465,0.1789454548717321,0.14021223722880372,0.13116926898090409,0.874071250619878,0.775553051948768,0.030569097719089413,0.13542782879146742
50,0.3173850403618129,0.3731855547023482,0.12747901396678288,0.18620854282530377,0.14795869927152105,0.11889164013282849,0.8740600754873493,0.7706991225496648,0.07722514406779958,0.12452415137413639
51,0.3103797426891543,0.3650082877785883,0.12514228192037224,0.19556860516436114,0.1566372861231326,0.14178284024283613,0.8710394954998227,0.7655384432528678,0.03252896989095575,0.1477056530059036
52,0.30594098052224034,0.3577375292127691,0.12709868517228828,0.2001256678492074,0.16721792013383105,0.18240941731423943,0.8690646627545161,0.7600141504021003,0.0679817970291422,0.19639606687738048
53,0.30246517125242095,0.34825100089372774,0.1269619492650722,0.19728344886846483,0.1768770651164057,0.15334188425355125,0.8691311380796004,0.7542234009437466,0.09804794484423551,0.14696497660336233
54,0.3031541313687886,0.34494280191490045,0.13388144615519892,0.1917059812144842,0.18760309164615002,0.22044078437014136,0.871493471086327,0.7482425588905111,0.0023263292630374115,0.15228418119962642
55,0.3045351790482495,0.34921608746419025,0.14436357665912536,0.18786045940523127,0.20200074146978236,0.23803036240843886,0.8783577582638381,0.7421573477586799,0.07841564976460819,0.0876720051201505
56,0.3076290687428887,0.3597654692794879,0.16010462987781449,0.18788205935856828,0.21660594224663232,0.2933171304878681,0.8880542017502638,0.7359019655460763,0.07326243142390897,0.13026710389833526
57,0.31007185564365236,0.3687568669679233,0.17107348524874555,0.18972563646224155,0.22650573575075902,0.26474220598566434,0.8967181692262077,0.7294012470695965,0.08859790382383276,0.1465487762519943
58,0.311378927281155,0.3736532742896111,0.1788431791344874,0.1899922685479348,0.2322299042739322,0.23912492609772348,0.9022746155699362,0.722633133901144,0.005212011380295494,0.16289126046887045
59,0.3131010423716703,0.375823811640437,0.1874818460479209,0.19101140478412026,0.23626538620936166,0.25743370912539665,0.90655574848772,0.7156235944218918,0.04279588426045215,0.18724672559107003
60,0.3148476690785505,0.37718255264641365,0.19868627927526594,0.19239329783632284,0.24182038761915822,0.3116035739784145,0.9109716122189566,0.7083370968411538,0.09462774193684237,0.21880247417023604
61,0.31693724595589345,0.3792199875194791,0.21530185372335747,0.19974099822432786,0.2524160705437168,0.3835471009135499,0.9165285063013091,0.7007474644305524,0.06280523736197206,0.24892510980003485
62,0.3190955728055921,0.3798894672603196,0.23601833688991133,0.23428910753603924,0.2674863603404992,0.4539118067752408,0.9238782519507431,0.6928363589573312,0.004354121749877014,0.281618567208994
63,0.32112234319440963,0.37458800453684027,0.2551614591111128,0.2796324137625005,0.2820300544576748,0.4858448654364024,0.9317566389647677,0.6845973555626943,0.0036696185061778144,0.3061067936160826
64,0.322667562655834,0.361796303920444,0.26992153660298857,0.32718227669746897,0.29286352474694477,0.48945339678755256,0.9381168404406076,0.6760195656205793,0.026296293411270086,0.3194279899691241
65,0.32402820008909344,0.3470980696628249,0.28168069911822885,0.3748159886659818,0.30046757380092487,0.44625439760428864,0.9430324265391798,0.6671842144205732,0.06279998993097527,0.28188343821168116
66,0.3252840952136586,0.33354025991756564,0.29104183104647263,0.41504371958757563,0.30696524823779303,0.3761873996235946,0.9465343167583807,0.6582051249702904,0.11323207591610779,0.24711213355324851
67,0.3257453645068244,0.32273046425757135,0.30064761616575403,0.4453507111227267,0.3158009556274097,0.29892838670006705,0.9492061232552759,0.6491784895683854,0.08958868194869449,0.20939691005446248
68,0.32360824514571485,0.3134616543777081,0.30671347981053215,0.46751395040464794,0.3251923006858241,0.221854191522891,0.9508740016891823,0.6401851735212157,0.04417005155485926,0.16148335441318337
69,0.3192738858330822,0.30504031015881844,0.30822031859637133,0.4865246201731049,0.33396604212242137,0.17619297994518132,0.949594827648004,0.6312951711143495,0.05437293606360816,0.13935677002739463
70,0.31478736533842033,0.295145948896369,0.30839876555513823,0.4998558227066162,0.3412531744503652,0.15151140949016756,0.9464141396942385,0.622513032118763,0.05034989400281672,0.12776793865560637
71,0.310110064999573,0.28593965296386614,0.30862434626182383,0.5099239060655026,0.34935332719277423,0.12795987696738986,0.9428598052101115,0.6138502045042856,0.006986698603272515,0.11054428651142782
72,0.30552599999391367,0.27545333089886614,0.30909095781568435,0.5195829705263664,0.35788601428697947,0.1276695787826563,0.9391448542457962,0.6052918605793701,0.04136088930670304,0.12112302977824033
73,0.3001434097406992,0.2635142775811682,0.30835509835134617,0.5246518362844967,0.36662392983741654,0.10966805512424888,0.9355421678875161,0.5968124090382928,0.12555908850867528,0.10786672217732306
74,0.29189567675757927,0.24746369457370088,0.3036908783761958,0.5268176919523601,0.3758742679719989,0.1692303329211219,0.9298779787114007,0.5884040771466696,0.0088362606889273,0.16121652352146015
75,0.28194140068011264,0.2298025525003762,0.2960776377198183,0.5220345123303852,0.3847671066875627,0.17164193741627046,0.9212523927248785,0.5800978672038647,0.1073037759601062,0.13882242762931415
76,0.27050401037838223,0.2080718472816495,0.28468208582184285,0.5155196588512868,0.3927684836624624,0.22849666721399844,0.9097369769727854,0.5718887686764941,0.02662580918472684,0.162706038724166
77,0.2597201766249625,0.18507236988327525,0.27222438653458375,0.5094116067863967,0.39934602751963033,0.2456259902674204,0.8953388713780337,0.5637939392846467,0.026543795338876023,0.15872659899178063
78,0.2513598991636866,0.16137945925890285,0.26094541178909064,0.5065070388778674,0.4050174211059996,0.2573225700301592,0.8791085935248902,0.5558360584515617,0.013912273935793555,0.17286157045887962
79,0.24539899272920176,0.14220480268753688,0.2526947684460033,0.5074618148139072,0.41282291427122747,0.2602501959724083,0.8625422919785527,0.5480292938909591,0.01023136569224708,0.14684243742500766
80,0.23927737356630616,0.12817855526023622,0.2462577898300084,0.5133317501322441,0.42626399779705765,0.2918029369189904,0.8473889163556988,0.5403753991355267,0.0183928887939932,0.14602759965099332
81,0.23292615754160176,0.11561626208494911,0.24040411677015847,0.5204189870031748,0.4416187894362868,0.3112997223096811,0.8332250516924029,0.5328159584823667,0.06031786267452049,0.15937959145452418
82,0.22824392635571192,0.10501678277355776,0.2374818590213645,0.5271643908878803,0.45475575031336346,0.27678559965933,0.8200435534422935,0.5253259130791302,0.017344361555273295,0.1513359683753696
83,0.22519130503715265,0.09458034454790754,0.23600628837699186,0.5345492741898079,0.4646946970485386,0.2755318288951335,0.8080464113769504,0.5178608045354622,0.027116198660194876,0.16894519755954443
84,0.22335463335051373,0.08563982644305151,0.23578321777716452,0.5416132742328433,0.4720322216956489,0.28462540984157925,0.796864526417833,0.5103912240656843,0.03410035466549523,0.18641455849759062
85,0.22162571290246214,0.07877048456832164,0.23655412352656793,0.5539119305925081,0.47915051754675386,0.3036364178613311,0.7868723094676693,0.5028871248583948,0.08401848593494476,0.18898312831949943
86,0.21900605312415333,0.0744317314945022,0.23825753397379854,0.5703300475671156,0.48824448483158756,0.34496364865778917,0.7777804274685276,0.49531028683356154,0.16653114637742522,0.20506313124304837
87,0.2156337869980295,0.07107515238188199,0.24210301768058518,0.5938166239346147,0.5004383844017408,0.42837294454439706,0.7692969309906779,0.487613810727841,0.018933381314172194,0.2642561470214416
88,0.20972501009975666,0.07054114299127923,0.24280821056354868,0.6215930921793025,0.5145073332730934,0.43444395444949213,0.7609405721391492,0.47977790152393923,0.06490830847858432,0.2671705461546511
89,0.2028299598785898,0.07355075070984723,0.2407166423850881,0.6517633276003076,0.5276592010528367,0.4491053950996,0.7520452713725492,0.47179509727472185,0.03198566076414109,0.2776809084475818
90,0.19759446908109188,0.08037753358678389,0.2387131097130238,0.6838609038792627,0.5378055539645293,0.4379167762990027,0.7428192226653957,0.46368257983645905,0.20253025877140846,0.2571222858937329
91,0.1931779480503819,0.08929176266622842,0.23358149052979185,0.7123385530187234,0.5431117388537714,0.3558419455403223,0.7356756632583643,0.45548781300502766,0.09030123542835794,0.21128696022998408
92,0.18985085754777187,0.09913418945858278,0.2290716854041262,0.7391633039961341,0.5465696592771315,0.3251014168356667,0.7312910901148868,0.4472508553498412,0.09791001749723625,0.18297354187860312
93,0.188207328051541,0.11242521496186567,0.2286205586129186,0.761847856994908,0.5503547285958545,0.29668287518302594,0.7285037241679726,0.43900450855639045,0.15334975557327393,0.15167449770441901
94,0.18899949612265923,0.12746935230912737,0.233663138247011,0.7858663193527001,0.5537774416719458,0.2584693234138046,0.7287307970084593,0.43078520269793213,0.06138110124881949,0.10684931907775272
95,0.1915055024211888,0.14499183531811444,0.24241585489498685,0.8101938724368246,0.5571162108975408,0.2640329462731323,0.7311959150854618,0.422615852107335,0.02750697125658151,0.12726260508741835
96,0.19335364133021612,0.16404031339278824,0.2500068594668169,0.8328618243969933,0.561092270086726,0.25347114819390026,0.7321440638952221,0.4145056807169283,0.11671200481814555,0.1450362051516499
97,0.19258322118682253,0.17912068151313423,0.25299833557611134,0.8536713521172193,0.5664395486976662,0.2070585057842555,0.7303125018285148,0.4064700370733834,0.16757426547799203,0.1270576700555561
98,0.1904880169321686,0.1858877385932251,0.2519504092405107,0.8698061994373602,0.5705110132668199,0.15255177462233133,0.7273998285345383,0.3985222796027046,0.022342099023068,0.12397501117600332
99,0.18634890378174862,0.18214270634346463,0.24594977375188268,0.8773874091159688,0.5742834359554426,0.17554091345552103,0.7248164541936677,0.39067892572699825,0.40776597876111487,0.16920716352314047
