Frame,Center of Mass distance,Symmetry,Grounding,Arm fold,Leg fold,Kinetic Energy,Potential energy,Bone length coherence,Torque,Center velocity
1,0.5781819552789504,0.5607843378299626,0.48728320591470414,0.13972185905086987,0.228836215499996,0.0,0.8013193460179542,0.9999992374286134,0.2049945934347201,0.01789020909715518
2,0.5175447411060813,0.6249398780562139,0.6183103293568031,0.0,0.1288844537102074,0.0,0.8013193460179542,0.9012310561804943,0.2049945934347201,0.01789020909715518
3,0.4620897419077994,0.6955756512176556,0.7668171591917631,0.09752941307632557,0.006668496626023678,0.07808900794568774,0.8886226407193204,0.8060146340476215,0.33018827282112323,0.040053057978224935
4,0.4082423213322019,0.7688687941594676,0.8967654502961317,0.17997293865941738,0.0,0.15879410596212895,0.9631319071700584,0.7107743549613992,0.6513061015163557,0.05843802715568563
5,0.337127469861689,0.8444656285170123,0.9754565851544983,0.2562163105484519,0.12689794572483412,0.30005341059260604,0.9999999878829429,0.6157335032723797,0.5168774379116082,0.09537109336568823
6,0.2494095317340511,0.9073718948754967,0.9914287522324186,0.34686822326504146,0.24501006888934027,0.38276824091246225,0.9780276694252852,0.5249544510576977,0.7627530903283265,0.07309263690746161
7,0.17169460209552895,0.9557928517368458,0.999999978242336,0.4547214930910146,0.37538731297125444,0.5184894768049202,0.8985251188333636,0.4407104636203423,0.6616306545707485,0.0
8,0.10545905784142195,0.9900920459329736,0.9479285709449742,0.6045761888558117,0.525920684289772,0.6256368507967909,0.775516915028335,0.36343021295857825,0.3139553114727338,0.08266047655495654
9,0.051046513418902456,0.9999999954976934,0.7674007111456081,0.7782980898966528,0.684375912063896,0.6448335713598315,0.6194670262694939,0.2940061411705153,0.42795219205821566,0.2443662968510037
10,0.0310957510143793,0.9570383589858723,0.4755000281401445,0.90318116840066,0.8016128470215864,0.6896764181114169,0.4501078400975257,0.23271630378399513,0.8146238251614374,0.5154993183876677
11,0.0725833186792445,0.8431969392599051,0.13669144302398686,0.9621454626530829,0.8643521342431647,0.8149580616921454,0.28971750035508986,0.17933582860384964,0.3439187588542497,0.7993325075096879
12,0.17298159668218363,0.661746501311113,0.16039571267824043,0.9784589249974665,0.9004664842792074,0.8844316090634029,0.15115811162443396,0.13361172078028413,0.4355816099410197,0.9427600649322962
13,0.26842423040214014,0.4372479561005926,0.35820919318722955,0.9935268331274142,0.9450572721585436,0.9806642468890184,0.04167745427161504,0.0948198685458402,0.024127981293970233,0.9999999983678847
14,0.26767201139943625,0.1893998202452201,0.40239312133940164,0.9999999488969928,0.9913216396040132,0.9999999994203371,0.0141091619014919,0.06249748226157768,0.575303505237338,0.9877850226857354
15,0.1830896465999577,0.020019352721660447,0.3176023627261583,0.9552166337190131,0.9999999643873356,0.8138091585825703,0.03140974486285186,0.03658951965134564,0.06300223563560395,0.796881254738365
16,0.09848751748350094,0.0,0.17779486240364356,0.8107773780110284,0.9401631908152545,0.6204598089747433,0.0,0.017333183334351576,0.23146817458055252,0.5860166648234071
17,0.03868068244361175,0.04042934863807682,0.018353616744370516,0.6639817547664144,0.8657438838500046,0.5746269531433883,0.0648771906061344,0.00509324290357018,0.0817386630779617,0.39044088111720104
18,0.0,0.18976983327503244,0.1892974548990782,0.5424786248705782,0.7895601944478711,0.5475594001774053,0.19212983253642268,0.0,0.0,0.3479034054423727
19,0.00650015012689607,0.3405024081675776,0.4613450085470154,0.45067680986343017,0.6671244238946248,0.5378433327253794,0.36632063710437884,0.0014754590145692234,0.40518894242221487,0.42030857059359367
20,0.08779240204330523,0.47926815129865596,0.7233822990023944,0.3570286135918029,0.4901376662588133,0.4920236649794955,0.5616902275892426,0.009304153053739505,0.9999999999472423,0.43480729372545984
21,0.20794413669728207,0.509221647757872,0.8649432630838209,0.20472451292515342,0.320736256907264,0.46446048105059073,0.7260601114104404,0.02443887668777364,0.6524325141720014,0.575409054892233
22,0.31613952221964314,0.43863961808674823,0.8439792559189878,0.1921129979249255,0.17589771141534014,0.5510098248051248,0.7967219430564123,0.04737384883170985,0.17315328540032912,0.7563887618749002
23,0.39231190035552255,0.4682471017679829,0.6798771664104738,0.21075489123191576,0.21012890862049344,0.6896378623484812,0.7320266783413197,0.07837391331295564,0.1513365408931619,0.8939286792828717
24,0.45681779781647447,0.49884485855427585,0.4629877375569537,0.3588781175660743,0.26368307177561423,0.6835428552603818,0.5538903305572155,0.11728168621784531,0.4418977707893336,0.9383791740856141
25,0.538841684976847,0.4495471449709659,0.274777157031782,0.5222604265438381,0.2802984728682312,0.5300412601409775,0.34563766815397107,0.16328246086850487,0.14697759908942926,0.8480642364757824
26,0.6601116858193019,0.37826633595865095,0.12050819464612164,0.6526772539787883,0.27552016619162917,0.4524545947742074,0.1695878920941486,0.21649784104780667,0.24441113515777688,0.7730328299774303
27,0.8148280342414611,0.3417223991632409,0.027872388851444618,0.7348688044442266,0.3340224040111143,0.3593070987981146,0.042848917751712845,0.2766290818462845,0.09023922382925995,0.6624937496536362
28,0.999999998201887,0.3021859840312909,0.0,0.8079753979487675,0.5416742506503145,0.35668047302047695,0.014037867608168388,0.3417699662782784,0.09023922382925995,0.6066308012434868
