Frame,Center of Mass distance,Symmetry,Grounding,Arm fold,Leg fold,Kinetic Energy,Potential energy,Bone length coherence,Torque,Center velocity
1,0.5406362251142817,0.0,0.0030446737771602644,0.7713481315010152,0.010117145824810415,0.0,0.33162715337907933,0.9999995102460546,0.018680732452019823,0.0
2,0.5371844592989234,0.009368563845177414,0.005040256023000749,0.766117135150247,0.0056341298987495235,0.0,0.33162715337907933,0.9952649959396689,0.018680732452019823,0.0
3,0.5326345929460519,0.022930089756803853,0.007895696153359947,0.7575402111126435,0.0,0.007576319274971479,0.33605238433300977,0.9887063204210591,0.02018662416509644,0.007692771442278135
4,0.5273251347355814,0.040780043443624486,0.011666928933718143,0.7438916322880927,0.0007883591741311821,0.014852911638345703,0.34215279097573525,0.9805312389225378,0.031546079546739325,0.014463670807788305
5,0.5217109821990207,0.06245725547019385,0.016423620557942036,0.7269918073452829,0.002714099705380431,0.02548626799730491,0.35031146006059993,0.9701024827221995,0.026662916693185476,0.02650671804175288
6,0.5153687052801962,0.08665923932332403,0.022298518569697452,0.7101484924168083,0.005275582160015801,0.035743665458592436,0.3606796371684968,0.956776135023305,0.026863758806276603,0.03982603351569118
7,0.5088519069160761,0.10942595808679931,0.028949772817746043,0.6927153615582693,0.007844402861516414,0.04619992932242408,0.3734930890614615,0.9407395153141878,0.03456990845054622,0.05249901489097506
8,0.5005394220941262,0.13075597893517926,0.037759763647099244,0.6773692409125344,0.013214957043502517,0.059097213425907666,0.3900184490559743,0.92220684162537,0.02940070008414872,0.0656736086555884
9,0.49013753946979827,0.14331336981183507,0.049033869702993074,0.6692414803609509,0.022999185441277405,0.07165091211735457,0.41147408172680605,0.9012087933841383,0.04718453204096527,0.0775214420856768
10,0.47628426408643526,0.1459248533677477,0.06414793849935822,0.6614199023081446,0.04177270637790043,0.09053516751273075,0.4392766039712866,0.877483919627911,0.01578982927276915,0.0920934684371342
11,0.45894027768040213,0.13384461420323973,0.08239181592887942,0.6425726506721863,0.07195203272166174,0.10485525210094646,0.4734801356380929,0.8507511117351985,0.08024509060284597,0.09775538771855095
12,0.44211664284762303,0.1059973441814009,0.10549904281235631,0.5910740276144706,0.10267261169958736,0.13084456583937906,0.5161575368831349,0.8209082806879495,0.15073285856382337,0.11171612693488434
13,0.42842683772735846,0.11234824353541102,0.13505848064786216,0.4985232711253113,0.13479614180181188,0.17309126635150385,0.5723290001739255,0.7882783219193856,0.24324054174769522,0.1407350833842726
14,0.4230204968098322,0.1509952342141135,0.17405736007047434,0.3704017164208544,0.16574326612623339,0.23561613646580115,0.6468420647888332,0.7535068316827958,0.21149593772818154,0.1877436422562294
15,0.42642728624859927,0.12020247414143938,0.22028496532101707,0.2275783682648428,0.19094131231639147,0.29248655710801613,0.7405749703339743,0.7163706063761344,0.330740863500322,0.2351505055339703
16,0.4383721252370761,0.2973983935788699,0.27448807545111736,0.08227823330268981,0.21383080148535397,0.3672603977617398,0.8476013069571549,0.6761474167830798,0.36274020078721886,0.2898666360363249
17,0.4475298111979102,0.7133981196722975,0.32530767580537556,0.07490726900225962,0.23409906807184888,0.4423763645447862,0.9465024186001861,0.6317364585680273,0.3134626069830218,0.3382939943587662
18,0.42820164615875206,0.8877418026388145,0.3573246778317962,0.12995730527007127,0.247989319757261,0.49923277743576633,0.999999989881955,0.5830166738176396,0.37804984804276887,0.3577797702093728
19,0.3631614325889851,0.7723489118601345,0.3658633923303888,0.25225745160797924,0.24408629346923738,0.5438029141055094,0.9810164343614973,0.5315995248345399,0.3246631001643749,0.33209603286738476
20,0.2612222529374821,0.781718346622104,0.35078093182580555,0.3637252808470997,0.2556333834110744,0.5614063306383515,0.8926235842889007,0.4793781615042708,0.10872622069628386,0.26614962851481194
21,0.14313561600930302,0.7511930283937182,0.30192689182168836,0.436356890897734,0.37133477356237693,0.5461698383038208,0.7597912427485947,0.4280668454442073,0.4275410498508968,0.22099234418140257
22,0.03595621126023602,0.8373052342238937,0.2011890345555732,0.4833349067815394,0.5002320191913472,0.5849388123818572,0.5983886354833811,0.3787110830425561,0.7333644000837666,0.2696701525236813
23,0.0,0.7699053856770125,0.9948273605445416,0.5456572847403998,0.6406622607308664,0.6904943896322475,0.415602803807769,0.3317533009779545,0.28557295209964495,0.3922089205781518
24,0.08950466491315094,0.6497876921702358,0.9078553226513985,0.6517301022489045,0.7904536816052828,0.7463900007849479,0.23840814070754313,0.28714994422298934,0.021539622113156864,0.48117511557761766
25,0.3034259320795114,0.48585195394006725,0.7542415212145748,0.7899792453182546,0.9508577740443177,0.7629991230284056,0.10033511912411061,0.24476222802142059,0.08635577483845862,0.5119818097165201
26,0.6299563120270562,0.20306059044941066,0.6440267105956251,0.9214608828045997,0.9999999731448795,0.7941286549419728,0.01905222968177025,0.20470831856173044,0.07268158523798655,0.5911445633877958
27,0.9999999983418995,0.02452753337093083,0.6006203339336946,0.9999999576797731,0.9212662295952205,0.8255309849912277,0.0,0.1673765965486598,0.12187913398639431,0.7794914975080892
28,0.8601045623321816,0.40587740015526613,0.6206933936632463,0.9816402376807022,0.8503510102687398,0.9068798592997428,0.02609014939438568,0.13334470753788186,0.266695628184265,0.978802495468656
29,0.4896907092433986,0.816748768123953,0.7091934482630751,0.9000882509943123,0.7971268627963611,0.9999999997240269,0.07106047369603284,0.10305457415332642,0.40687117107147297,0.9999999990589338
30,0.22015901299915297,0.9999999904398843,0.8507766875762747,0.7864387034528033,0.6880045870464677,0.9146555053822797,0.13579204907908216,0.07658271628878294,0.7332008775940757,0.7962910894748378
31,0.08718418614977394,0.9379642917356004,0.9999999896177069,0.6434877359158787,0.5534895646062008,0.7819189409200462,0.24145770267193878,0.053962293125031674,0.9999999999657482,0.4912243968927774
32,0.06990715528347723,0.9285747731760652,0.9549082465628994,0.49650256722384367,0.4142498191802061,0.655718710675083,0.37981148371497897,0.03526832624718206,0.45510072015980035,0.3098155315128303
33,0.1257234417760016,0.968312712119338,0.8543363679374052,0.35208750799669863,0.27518926847281905,0.5925905332294231,0.5283945272953176,0.02048103333928871,0.32251935944751053,0.25095931034446517
34,0.23149462853260203,0.9595131808563069,0.26342968805465455,0.22328963080904726,0.13134479295962076,0.5468190013896336,0.6701578357892501,0.009589966200391585,0.15701755561995404,0.2726489454918041
35,0.35578160119532665,0.8696855188967814,0.3121459976710172,0.12828731970282226,0.04510383598080896,0.5219348237233875,0.7857951392414245,0.002619268372370203,0.30597812795362606,0.31042312453389886
36,0.44534870330188603,0.6854209534004346,0.32121258676639364,0.05082419683628866,0.052396499104000106,0.48299029822009776,0.860836180389349,0.0,0.2573575861710352,0.31235712652178305
37,0.4934080564488594,0.46081558920664356,0.29900977014102376,0.0,0.06920760159797563,0.4414479684177137,0.8869200008706316,0.0019749263310487658,0.3254117192600133,0.2945670329939105
38,0.5148090964614846,0.4083173085362223,0.2585180315396615,0.08199868812936469,0.08697235836086888,0.3752767366766959,0.8680683578094979,0.008304487604371441,0.26925827796458845,0.23965660624152976
39,0.5273558962657523,0.4406016046175677,0.2182652672540731,0.19681792957292257,0.10150122177567514,0.31137567754283707,0.819325746818427,0.01843382883395797,0.15502048490430426,0.18375278524588562
40,0.5382072631918018,0.4811695933934015,0.18202371586573945,0.28883386115636794,0.11389498049928545,0.253545423018641,0.761401696759613,0.031556009468324396,0.0916673570668669,0.1329364319731455
41,0.5498499401126472,0.5167393258721905,0.15138869108368616,0.3667069166412669,0.12644342276219628,0.2104627189979977,0.7078417748248743,0.04673189438078977,0.03559329042872759,0.10958049356682623
42,0.5613007259138,0.5253529753682112,0.12592629017349946,0.4347389184993624,0.1345634386963224,0.1865855873647187,0.6631072869818146,0.06331471116953205,0.08323190562091702,0.1049972219572404
43,0.5745816476431279,0.5067655123864345,0.1053618013466729,0.4933574591001874,0.13844330574248417,0.14855000139174243,0.6275031227216289,0.0808354174377178,0.032638443670890055,0.08692869478881322
44,0.587861065474946,0.4731621835585993,0.08798093378864105,0.5432931527693893,0.14585297063237745,0.12304261137105639,0.5992656110666691,0.09885822040767256,0.03326951468259892,0.0732513348318918
45,0.6007146674206335,0.43704109160370275,0.07465970061747139,0.5882046864135468,0.15167990643322257,0.1018463324425159,0.5762884461330706,0.11720181988960476,0.0325347895811778,0.06259248810767849
46,0.6124924722521344,0.4052886569460548,0.0641479176941637,0.6234486188285189,0.1631842071560625,0.0789718957416238,0.5583268648298988,0.13558469633399,0.007601854347534192,0.0495506853725253
47,0.6222236899525753,0.3748841759531804,0.05497873558393569,0.6575839321107908,0.1720860061561935,0.06911099597682234,0.5436289794192034,0.15374689597307242,0.004674724619096587,0.04453285566685148
48,0.6292243318403583,0.34552647995551766,0.04665966412459166,0.6900939368914033,0.17710765763840983,0.06130287494032629,0.5312738696405881,0.1714252420928297,0.010612077198578082,0.04335463201181824
49,0.6380575964715447,0.31555119995017,0.037057380279939246,0.7195374279715975,0.182922448306446,0.06565648805838366,0.5199042302290835,0.1884021995926644,0.010862201027351723,0.0513215921073906
50,0.6455558031956836,0.287786320256001,0.02696471800033531,0.742301165109343,0.18462181745487774,0.06870937796058417,0.508339553913708,0.2046567651319586,0.007870762877322933,0.059226844557288244
51,0.6528681872585704,0.26254313757411885,0.016602045906187385,0.7598511614921606,0.1837826149533931,0.07081019168422174,0.4970060377433825,0.2201669047833979,0.010678419079106157,0.0650014699191713
52,0.6559304369741765,0.24172334654494093,0.008802937868409225,0.771868401532106,0.1799039666816299,0.05442011496862764,0.48766853346595557,0.2348870337726062,0.016134808009004693,0.05772469522840007
53,0.6528476272277658,0.22060286469531187,0.0043940154732661,0.7857595201866403,0.17303093505897077,0.0354610485933992,0.48259678114881216,0.24882338736966617,0.005330423921478239,0.04332635021080102
54,0.6477695598119523,0.19951693322203642,0.0017912232226197807,0.8019163636912948,0.1682658550964429,0.026859450140380617,0.4798041253814002,0.2620673504988141,0.0069889633674439485,0.03181710147176796
55,0.6376995030504009,0.18408252234787773,0.002960880856211319,0.8056626177738538,0.16391826782809382,0.018164676083134903,0.4781001665916582,0.2746784806541913,0.0,0.010826333090278476
56,0.6293494115006242,0.1740901883050267,0.004241887890900082,0.8015080144638409,0.16022003590687336,0.012422814320508882,0.47776857627357705,0.2866663490019374,0.009331127826023942,0.007394311780665175
57,0.6236251945304391,0.16657826660090308,0.003157209074345415,0.7929701969364094,0.15458687363978973,0.013245682088295145,0.47611011171745066,0.29810271577973657,0.004429168845486092,0.016361623379791267
58,0.6183623662217089,0.1588016461253041,0.001979822310987768,0.786718310968611,0.14993561396314387,0.01464275383536695,0.473331149429735,0.3089074509098546,0.010090757786834551,0.020414367498029592
59,0.6146369035817002,0.15070711152782879,0.0,0.7800951027249231,0.14680301558422104,0.019611203596264042,0.470245299036715,0.31906643034909576,0.010090757786834551,0.025594348525342245
