Frame,Center of Mass distance,Symmetry,Grounding,Arm fold,Leg fold,Kinetic Energy,Potential energy,Bone length coherence,Torque,Center velocity
1,0.9999999982971502,0.0,0.019967952126017378,0.9999999509209084,0.6458742671611651,0.0,0.08891658581297929,0.9999997193593079,0.004799839496817179,0.0
2,0.9962553068433035,0.0007884910242773012,0.01750690220896139,0.9976863639151724,0.6388405365899055,0.0,0.08891658581297929,0.9994211950338623,0.004799839496817179,0.0
3,0.9882292565387172,0.001895770896673447,0.013148241752130667,0.9947078832697409,0.6261598549375772,0.009245449291325798,0.08751072626192807,0.9990927245985132,0.019394371837947517,0.005602025733782583
4,0.9731703389239577,0.0030025889822177933,0.009357582565360976,0.990654456813562,0.6124887635690011,0.030477308298879714,0.08820511980410442,0.9971797868436292,0.0011017315936350022,0.022470295772673392
5,0.9583477570941598,0.004670234358450056,0.005868920680639991,0.9825237409399471,0.5988890040773519,0.03382754281079404,0.08967468068566588,0.9940424095357033,0.007453812614545313,0.03237036950001207
6,0.9411205618031439,0.007238538563097589,0.0025143328247285825,0.9718554817858865,0.5839325344988074,0.04260988260828842,0.09034394269985391,0.9896661533909648,0.01565933913611322,0.03930219443598055
7,0.9193169457166146,0.011894953349752118,0.0007755673915597048,0.9526677842103792,0.5690825232524699,0.06563788600260984,0.09056543148684539,0.9827631714822989,0.0059384265809978125,0.06821544056212309
8,0.896997982757402,0.019294831494686006,0.0,0.9256477013804768,0.5544328418979946,0.07319364373411714,0.09022610055554892,0.9731252587625854,0.011519845515854837,0.072269776017917
9,0.8717107639121652,0.030242818501392148,0.0008313137213336902,0.8904500303781899,0.5391876979573095,0.09242107511893004,0.08884883645836429,0.9596806909659794,0.019486891799122087,0.09625171861651093
10,0.840658736045824,0.04180602221660146,0.003909952682971512,0.8474217832548698,0.5218590327797273,0.1189272217112408,0.0869350988553996,0.9413326200102885,0.015125118394867134,0.11598771644838102
11,0.8050078370813688,0.053652082817774456,0.008837526788419496,0.7984625349754061,0.4999450971148962,0.1383928390424729,0.08704168566123104,0.918318354933497,0.019779673941660532,0.12815356238566483
12,0.758233376914532,0.05949864441714818,0.016683663037848653,0.7503428301237088,0.4649153866938552,0.16745383825439838,0.08808166149408828,0.891243922807823,0.03493198210420702,0.16429136516193713
13,0.6997662877355583,0.055891289565820686,0.033948876167315685,0.6974639280133067,0.42099547788532243,0.20697430394085264,0.09583275562156114,0.8606239465534492,0.033187610166985945,0.19068624626237313
14,0.6336435133478662,0.048174525453183153,0.06248020813512722,0.628299148607685,0.3685340870735906,0.2538099597926779,0.11575473516934814,0.8261164539142822,0.07104994836916997,0.25562405414391365
15,0.554832446233836,0.04992831513167195,0.11186709970719741,0.5436144018985167,0.2946159954469035,0.3330988449559971,0.15465950864404626,0.7883429638875061,0.04506291841290307,0.3231808802973973
16,0.4804790929951586,0.07070163758021572,0.18516353281468717,0.4503457321131628,0.21619163592313137,0.38673212616874725,0.21823812730862988,0.74789206995619,0.04790867979956457,0.36893293646411385
17,0.41621550174796246,0.10316831425578434,0.2862502868362385,0.3319592926233156,0.13541022381325876,0.4549991557444181,0.30346226107351737,0.7054494183230031,0.05236418333876839,0.41535364018110726
18,0.3679105768010469,0.1395550867454328,0.4089846819054723,0.15670088780393354,0.09547094481442188,0.532487346480032,0.4115948968209952,0.6606475319506175,0.042965471605483155,0.45698937828787684
19,0.3437336239939331,0.16189802990490554,0.5500904692702454,0.0,0.06437871301649581,0.5843295115775162,0.5530794793255256,0.6137662535602276,0.0,0.47068613105667606
20,0.345032125156163,0.1940575294872907,0.6948836801881723,0.10822976234937921,0.0,0.5715068935146567,0.7155056997946523,0.5655305691980149,0.020083162075747292,0.43983194750888677
21,0.3617487273467927,0.2426333122424622,0.8311054766306459,0.2547687602420481,0.09867911770322797,0.5522017603382472,0.8591512237062392,0.5168746722419776,0.05596149247124402,0.415221764273304
22,0.38289933556464806,0.27945548897982253,0.9384710431015031,0.3897428761398337,0.2510138752651759,0.5800883744072836,0.9580700528253231,0.46852744272858166,0.19076085601864365,0.4120620021183292
23,0.3923956251450371,0.27452296267539805,0.9999999825446416,0.45370358166948893,0.391124287292032,0.6785053730425755,0.9999999842196002,0.4211015035681,0.2580818567664152,0.410297378348303
24,0.35589065418333954,0.24015318187168563,0.9802077431237851,0.4710089536216617,0.49841906142112985,0.7836706851469193,0.9686455756582077,0.3750782888448152,0.17429475194787777,0.3949678294942126
25,0.26838123830113686,0.25921267628558103,0.8919462260360633,0.5064458232928828,0.6062279529849508,0.8594849292416288,0.8584784745621129,0.3310887877185465,0.012851012672730408,0.3689936098848027
26,0.1530515779022559,0.35575826077722283,0.761312103881965,0.5317120994474106,0.7425276034115418,0.8888077616543617,0.6966242418149551,0.28941574751270827,0.06800661501975393,0.36604521309492055
27,0.05322975028891073,0.46842406705007517,0.6003827711071313,0.544857227735219,0.8804803766985699,0.8876215649561439,0.516253359285915,0.24993122294306083,0.12454746960502736,0.43875047055151717
28,0.0,0.5983811257812215,0.43371685816121125,0.5383005938266586,0.9878526941393162,0.8555401496096224,0.33639798032552526,0.21257756747641637,0.16750980613882088,0.5167363623717258
29,0.0068477296436162734,0.7502067271649089,0.27636078757270743,0.5687981114743471,0.9999999636420609,0.9067440249134644,0.17659611761031557,0.17735241183850212,0.10246360879119835,0.7824755917090231
30,0.04841840937206305,0.8866386305005379,0.1547196044893177,0.6681711274372946,0.9729293144666741,0.9321727206629306,0.05769627446286808,0.14437883233030588,0.2336361116995888,0.9429896561439526
31,0.08497118819831544,0.9859065651735027,0.13776170326698803,0.7746814198631514,0.9604645959296945,0.9859325314857069,0.0,0.11371701657750322,0.058921657542196144,0.9999999984616882
32,0.12329574141080912,0.9999999946672343,0.23764664944506253,0.8629387086380725,0.9024735991577614,0.9999999995946665,0.015198766559385513,0.08544641780449852,0.999999999979529,0.974962983480493
33,0.15437239134434963,0.9325001596077682,0.39733725725909586,0.9214295640265948,0.8078130890121477,0.8031328197684436,0.11340285932522645,0.059770913322779895,0.01103328673273759,0.6300816089689929
34,0.1953446633062869,0.8597178920872109,0.5780711009463646,0.9400588762889392,0.6673156612452418,0.7390022603387268,0.30880013643231136,0.036863314351201215,0.29691236456467573,0.49309084140419035
35,0.24717138733380728,0.8094534515107975,0.7258453377251651,0.920042411518999,0.5035518888636293,0.8506626784263,0.5843021811525982,0.016886097445793908,0.02119829723314913,0.641369193061005
36,0.2766374944746093,0.769795907603454,0.785498529499678,0.8774998938794055,0.3433581493871876,0.9215629737183291,0.8513076365955167,0.0,0.02119829723314913,0.7605753311184431
