Frame,Center of Mass distance,Symmetry,Grounding,Arm fold,Leg fold,Kinetic Energy,Potential energy,Bone length coherence,Torque,Center velocity
1,0.5086330699736056,0.4125138130249139,0.969398949473436,0.9829890016626005,0.9873523669157285,0.00974316624978957,0.7213407683065709,0.06341977649344377,0.010682012549188399,0.011065066506545889
2,0.5104109621388141,0.41077268585448656,0.9721274812810787,0.9853277225278743,0.9864219098870435,0.00974316624978957,0.7213407683065709,0.05866360628548704,0.010682012549188399,0.011065066506545889
3,0.5099148834069487,0.4115506444282937,0.9717976848278066,0.9848810505810616,0.9847004646883615,0.005761526624473651,0.7219184169004087,0.055323006022848974,0.011278706057625319,0.004931179865522032
4,0.5110189700493856,0.4097167725841919,0.9736844052568813,0.9845463686839167,0.9826890937884311,0.005548764774802871,0.7223241194569208,0.051438238827770995,0.004428223210307549,0.019065122727093757
5,0.5133670427795274,0.4076552270525665,0.9769681339714692,0.9836281125333229,0.9796745862877522,0.008491108304729718,0.7218456562991715,0.047640851113911586,0.01868555892689756,0.024102792984418284
6,0.5149164567687456,0.4061414488782214,0.9793910702166554,0.9831331901276661,0.9798391602244061,0.0033391951409899845,0.7209610813457193,0.04414469031280401,0.0015207903689511827,0.011987652879074731
7,0.5180389776687188,0.4031253381258091,0.9841254287983676,0.9793759730126088,0.9819231555367322,0.008953166297429446,0.7198848416397858,0.04084678540750392,0.013047980630940943,0.02670830680694911
8,0.5209582276635959,0.3998683229980798,0.9885651059448515,0.9803140471126305,0.9849600026860162,0.00868607389756919,0.7189921119324465,0.037240371903161935,0.003130325675186008,0.012282531347592137
9,0.5248071686007219,0.3970615658953228,0.9940625043781609,0.976321765435928,0.9870422833456426,0.010985949596210992,0.7173167527296114,0.03422902437192586,0.00839565504470329,0.025063017084371142
10,0.5291640871529256,0.3936197277944249,0.9999997895915901,0.9752270431124149,0.988302747960278,0.011054053110215257,0.7144018459544276,0.03147251599946705,0.009476029659150838,0.024391687663296416
11,0.5336031241841733,0.39031860271069596,0.9938204954700066,0.9748117758818158,0.9895780838032641,0.010697564304150798,0.7117031411672868,0.028835918483314182,0.024448337525324687,0.019211440336202895
12,0.5357362721356222,0.388462927571599,0.9907716577545096,0.9748621594960287,0.9899285623009841,0.003728443482572254,0.7096158405141497,0.026230632740501508,0.00702128578933191,0.007867495602662927
13,0.5386451125401609,0.38683394943745536,0.9864852529165224,0.9742445112551766,0.9921393085548241,0.004992449232772077,0.7077487849586467,0.023548020484228355,0.015712360409765248,0.007480320559769143
14,0.5401306315320605,0.3852604502267986,0.983906197199214,0.9743487586013815,0.9941902902514105,0.002507226224510924,0.7064530303547824,0.02083560203743272,0.0029243547303978027,0.006199400141328636
15,0.5419493630440668,0.38485587534765137,0.9811278400281273,0.9735927277018582,0.9952671850464611,0.004751233786590712,0.7056371677792266,0.018422212855371697,0.016512645977963633,0.01267531599425108
16,0.5433245304059086,0.3834412496233664,0.9792396960172398,0.9736373065943641,0.9946364311928539,0.00188271236514029,0.704631314267251,0.01602511360320948,0.009386645028473984,0.00782684120628434
17,0.5441946253821632,0.38268137918029504,0.9777411388957551,0.9747466027805196,0.9960137080715132,0.0018431354892380761,0.7039471723484871,0.013593691657801792,0.0099088112524619,0.0
18,0.5444620599089821,0.3824328253221304,0.9768993275171893,0.9745097025577519,0.996790850707738,0.00035852051738260413,0.703234360286219,0.01129909147639965,0.005360493298907365,0.0012821657593581096
19,0.545336161171662,0.38178236203671717,0.9749438006338349,0.9764756859811684,0.9997612706334401,0.0033032043124625763,0.7024518680863673,0.009091207415227296,0.0009936058215795243,0.0029999211253477617
20,0.5436180345624503,0.3840644122597368,0.9766502006999693,0.9779322229746669,0.9999997419632675,0.009417970009641076,0.7025456337015927,0.006886819522680442,0.025452432024315613,0.01772442620761583
21,0.5419627214270263,0.3859745949536238,0.9787941149098692,0.9765422458691334,0.999598017989357,0.0030543971612815063,0.7034601633211658,0.005015959626247498,0.0060256328654666015,0.003727444278450333
22,0.5399079293052431,0.38761150808368,0.9816023672990224,0.9782852801669017,0.9986262438934143,0.0037632589586280335,0.7048859711553991,0.003330267777805197,0.009248361128193295,0.007634638389656986
23,0.5393699275763157,0.3900574941737827,0.9828062429852813,0.9770881196958915,0.9960952363125634,0.004758156315873044,0.7054715402622859,0.002087863664754683,0.011291822612233448,0.010630377987428836
24,0.5375206703068066,0.39190641222985506,0.9856951650104843,0.9755310783849966,0.9938069657143672,0.004389932879916063,0.705448923983716,0.0012194444918035303,0.0023426264104494782,0.00036542737574359844
25,0.5343769559260036,0.39421532781691093,0.9904466065739487,0.9793589912903515,0.9907609655031393,0.007564417377005301,0.7072427529123176,0.0005172901351182858,0.007491071669425961,0.015126162165690654
26,0.5312839043048694,0.3963367018641669,0.9952635329007943,0.9777998548947645,0.9895095438003094,0.009478809296749649,0.7094373009748767,0.00017330286708104083,0.02009544604816421,0.008162112120741648
27,0.529650399454798,0.3974623531901175,0.9979028535815088,0.9769482392141764,0.9889340351013223,0.00324760109301103,0.7106404154341863,0.0,0.016225510535218993,0.006648093486629455
28,0.5289683107826008,0.39835805103751537,0.9990469388316348,0.9775431002097287,0.9883242606292364,0.0,0.7107021674262778,6.163928248961503e-05,0.0040127138971544725,0.00619839191864873
29,0.5268220633011615,0.3994125823065734,0.9975759042918619,0.9789979629528747,0.9859434910743262,0.00262061831740557,0.7113329656607258,0.00020192615500463652,0.010798826126654936,0.004775446073306972
30,0.5255907634433384,0.3995402499501488,0.9955800425904814,0.9814882081908703,0.9849691292447506,0.002182436006166921,0.7130512928513378,0.0003482811566788519,0.0012476130767618335,0.007216822390824142
31,0.5220209347603235,0.40146349004150567,0.9908471075905819,0.9823234930932035,0.9841329038248207,0.008492880435668712,0.7150208484687799,0.0005528719045439616,0.011357622667491298,0.023302707530181332
32,0.5184526939245143,0.4033451292676705,0.9859518842640386,0.9827192100043035,0.9838014972780101,0.008227169771903332,0.7178220089879427,0.0008517356721913498,0.006911138112672042,0.01808394333504781
33,0.5159869061749627,0.40424448360732734,0.9827763477672149,0.9801571437779184,0.9845108078875975,0.00870680092584838,0.7204852384924114,0.001261749212901813,0.010937028620109007,0.008006198988753759
34,0.5146885376058025,0.4046946724471964,0.9808507161019268,0.9788715031490508,0.9865219171662714,0.008654607761961166,0.7222849151471574,0.0018006250195104552,0.0013464896761460885,0.018033002371219114
35,0.5111371525533419,0.40489206681329,0.976005792666096,0.9775013841855343,0.9868929168061653,0.014748003229820183,0.7257581941833869,0.00231121773578243,0.0017190836232554778,0.02880883120392984
36,0.5048862763381804,0.40855366921860775,0.9666068310114956,0.9728590371881731,0.9808186103225262,0.020104068819827077,0.7331946644041812,0.0030040095346364534,0.0013895591251835981,0.007775666521529922
37,0.4964388258693261,0.414039488783116,0.9537286354066962,0.9714441816290637,0.9700642787471527,0.026282238957853102,0.7446657864726992,0.003849842763235155,0.007705725316080499,0.012923032886932756
38,0.48959917855951074,0.41815721827506735,0.9417828858892058,0.9626704562184613,0.9558669327610639,0.0296423001213075,0.7568640052002776,0.0051801637806803726,0.006238192742525695,0.01982463224399224
39,0.4853341930747628,0.42010538338325426,0.9330980877773003,0.9523438875498405,0.9390242052193832,0.03736475829230481,0.7689576105665528,0.006993747971985375,0.0014805600563686098,0.05662508386692189
40,0.48482383654263067,0.4178537820468134,0.928944076047893,0.9372596404733476,0.9165519617992827,0.0471779359590708,0.7814637065584089,0.009090473985973173,0.014421926255414002,0.08395470820027229
41,0.4881766420136044,0.4131020427829674,0.9284387045043919,0.9196321766040435,0.8887677112671447,0.059361543222485366,0.7921702761456042,0.011339804539295534,0.051869941153840825,0.10647309560892843
42,0.4975283318219283,0.398576793328039,0.9348509915159849,0.9013367171536587,0.8585595206827663,0.08619845169749427,0.8026521655091842,0.013398840990640749,0.07419475586761749,0.15660482865166242
43,0.5114733375739394,0.3696391744715459,0.9455833748017985,0.8764600788332623,0.8248080961391351,0.11430945698466685,0.8095859884865837,0.016272308490456685,0.1166563305579105,0.19075656294285773
44,0.5303634604947393,0.32903176337516993,0.9609979186695259,0.8477584960495818,0.7904601109207184,0.17013885600970066,0.8184902689188727,0.018779847712215896,0.04229789238382895,0.28484891508888777
45,0.5562567445218151,0.2834057503563816,0.9830677075115445,0.8054682393632109,0.7463505085475939,0.19735866893201737,0.8285055583072745,0.021230561500599297,0.10156503176875448,0.32922465598426903
46,0.5964555668269675,0.22211858067671378,0.977909596076923,0.7552939249687252,0.7031550931526163,0.2499030636434826,0.8249867572048555,0.02403251712936121,0.0003511547394627236,0.409620154611305
47,0.6589826533854787,0.16072645920837644,0.9109025492084968,0.6914831112496584,0.6780315617245366,0.2813548800571271,0.7922467779151571,0.028452937562315567,0.14042430323859148,0.40902160226600515
48,0.7286586962741505,0.12118109203449647,0.8292183738513121,0.6151064838164153,0.6835174901200998,0.2725997222922762,0.7174315916164548,0.0366949369516895,0.04452137573118279,0.38203470577377285
49,0.7986010060906563,0.12093239942350023,0.7395531243249572,0.5344305255131048,0.726916897380037,0.3229523929842944,0.5986077481786726,0.051421457449855004,0.2822005893417288,0.5197653071742862
50,0.8722680586128456,0.15737084064593918,0.6382387048254216,0.44098915287896817,0.7940819250736081,0.439395083575067,0.4309934372932138,0.07454180843795373,0.1785670913143665,0.641578022321967
51,0.954538869511281,0.21078593264708054,0.5290177119382462,0.3011396937013993,0.8480056317450647,0.534824536980966,0.23077723375926307,0.10515752195479425,0.34718526315984066,0.7169261027630699
52,0.9999999878618925,0.2631692204132844,0.4748224268566918,0.14424789086283238,0.8631352347502335,0.45930734160572934,0.06988366390830872,0.13800487420242327,0.5744415585863205,0.6777100635693284
53,0.9908830495959465,0.31712974980921144,0.4923576330980452,0.0,0.8455434741484008,0.24587832106247762,0.0,0.16778404085542903,0.06267294498516333,0.20465579684854734
54,0.9669560397553155,0.3257773854874032,0.5262327113853692,0.01788574081891496,0.8046581887807364,0.08191822947604076,0.0035670958984948694,0.1945312733838909,0.1990319845282602,0.03216582296065834
55,0.9322850525844874,0.2930371056832353,0.5726832368786592,0.12157927952494588,0.7403977353381642,0.2459439127156887,0.06132283183826045,0.21625416561983266,0.08348042498841092,0.3220427235986246
56,0.8807979129951987,0.26096071432155094,0.6491855744376798,0.22957621641584777,0.660810774288483,0.3016238521374956,0.15642313958125845,0.23253975437945576,0.12171061820599002,0.4010940629278506
57,0.8449806183334262,0.225926649104471,0.7075823239757311,0.33703161031400813,0.6005939730375692,0.2646085283358246,0.25615736974713577,0.24463839636657353,0.00030801098872806345,0.26681159778936075
58,0.8315958802502933,0.1836702574943652,0.7351547310510389,0.4178061115539488,0.5537386700718432,0.23612756546148198,0.3386112704271331,0.25336392793118445,0.0145592009914439,0.2784844235026205
59,0.829194290345225,0.14139157602410315,0.7450628604673099,0.46971959336635727,0.5260920895359494,0.20834636601691112,0.4028479672854895,0.2594810994997145,0.1495773637058412,0.3008818591265982
60,0.8381993585728776,0.10806223196296227,0.7388479768004093,0.5091310211381602,0.5146978204160091,0.1439030152003274,0.44883720697945917,0.26397842620897943,0.002151386893858328,0.15749514927944935
61,0.8500407148061997,0.07344707782988771,0.7296559090359168,0.5397029674576701,0.5020618410224421,0.14630044317852647,0.4778055467449988,0.2669149443221988,0.05958795206952049,0.20128379622352952
62,0.850615190312238,0.04922626864061717,0.736022166902233,0.5646948219982287,0.4824453502487441,0.1279448410214421,0.49719015513248904,0.26857560094285815,0.1780366200439033,0.15906678269128488
63,0.8443686267915806,0.05437993354518409,0.7464432602983417,0.5756064189157133,0.4712617125592616,0.0724921390992207,0.5005891051851328,0.2701275303984566,0.4917258969516938,0.17715742053995445
64,0.8628843076739883,0.1029155425374388,0.705891583309536,0.5512367554049146,0.5435872808870756,0.27056256684021673,0.45436142581903205,0.275684130893422,0.7654226793248936,0.5697599749462703
65,0.9307802036276235,0.18794015740716094,0.5894174410867438,0.46512661064136507,0.6810626461687525,0.5907325913185797,0.3311428213995169,0.2894419048516201,0.0008348730142432721,0.9499675174004351
66,0.9856039637830472,0.29296273339732176,0.5084991527447816,0.3163305015438967,0.7545916780887445,0.6165257892531952,0.1846298250198485,0.3087023173689271,0.9999999998427693,0.960205332835987
67,0.9583257582389869,0.36714888586008293,0.5499804286572686,0.2046046194427551,0.75195175268675,0.2935980138632659,0.10746769084711794,0.3267695875376161,0.13742774686628498,0.17577586003568013
68,0.8956970819520359,0.38980424803167746,0.635726557453307,0.23126145374119325,0.6844318677172206,0.22010625129965933,0.11960881994661335,0.3425298677979382,0.03224969968535087,0.3500416861532692
69,0.8318784995876448,0.3624548729905692,0.7153707400729178,0.36587776898058466,0.5988043722443505,0.3295536546155018,0.2005392507838248,0.3548031395410386,0.03709331603391848,0.4596662603146005
70,0.7740686764357321,0.32505761970818997,0.8024075830457887,0.4735499029465392,0.5120656186198963,0.3419168746238154,0.31104298087778104,0.36326695968164013,0.05635470509646336,0.48603313100981055
71,0.7458581447800356,0.28929127727197446,0.8578556201225042,0.5541750138411146,0.46056876218837334,0.2784088680624385,0.39274401781643237,0.3693240655625628,0.27194489132437466,0.36569699657693033
72,0.7431435643548576,0.26570703279284724,0.8723329726302158,0.6045203072180628,0.4323268110953193,0.14777567876558945,0.4227866456989704,0.3745890266903558,0.1860164669028277,0.16939920145141135
73,0.7391115866450411,0.27202718519581004,0.876578093595635,0.6102898837567147,0.4405721976150062,0.08374437685094033,0.41134563816738606,0.3808933026515086,0.49947308077902053,0.0799306656742961
74,0.7377335275376818,0.32689150729962707,0.8694929269139149,0.574648967371949,0.4827303232285543,0.2825938941872567,0.35586387960873017,0.39043526770683373,0.295795235537893,0.430243842804487
75,0.7347298889592483,0.42753319601743506,0.8698141818763087,0.5134022433661359,0.5009465454197576,0.4229308785177736,0.2625351837920509,0.4038083577250744,0.1790157255609378,0.6551142622385435
76,0.7323863273812695,0.5468173849670749,0.8949859554881623,0.4845366675136841,0.44773943246843745,0.4413502382609161,0.16808280306473455,0.4182200958640996,0.10361666002675637,0.738969247089499
77,0.6514045863301139,0.6571910222757814,0.9637534985316073,0.5134901024648889,0.3344389046699898,0.43705386431171717,0.13816438885086127,0.4294221968857044,0.14498671680453845,0.08325370170691379
78,0.5461335261474495,0.6956431411681122,0.7837956744267764,0.6292050741381683,0.1972985488771168,0.4284357181686952,0.21922888315555886,0.4366912338184503,0.38982507736653826,0.3741854847269811
79,0.48831210914562584,0.6210122970371663,0.6959440681297808,0.6858194759052865,0.12083557465949099,0.6710748245920133,0.4235117004128371,0.4383743816976936,0.30243102462667787,0.9999999862381059
80,0.4899190360600627,0.4746722372121369,0.7164445952869513,0.5778236158384373,0.12110314554969318,0.8429448933314407,0.6888299537612506,0.4337238693901098,0.5261217286741754,0.9639322773680891
81,0.5360643757475538,0.32642205857804063,0.8049999255266846,0.36230228014077726,0.1743094913826877,0.6388215251753366,0.8726969819365498,0.42503704359173106,0.3826789865435345,0.6561861642371554
82,0.5847860922406295,0.19845894630798733,0.8880004395333302,0.18842049609369205,0.251659039246989,0.41055510824830144,0.9317518073801658,0.4165157979304629,0.35792449218231104,0.36063843604089746
83,0.5879010990939681,0.16570273447120326,0.9062260829538338,0.2965396006105452,0.3413860427237979,0.2440835239038273,0.9543399072131383,0.41046547952253,0.15271488466725486,0.1890273057725299
84,0.5811985831590091,0.18140315308293797,0.8973761493516568,0.48750168388841447,0.3853311941516831,0.19577158739300746,0.9818501619470168,0.40692551322036646,0.17901104919230837,0.0212172396987154
85,0.530672102249259,0.24089005289780435,0.8389746545408966,0.6370635621188039,0.41696189414427287,0.25073389623463777,0.9986576058877599,0.4055125996056853,0.2093705221145701,0.325990225256428
86,0.5075791530515289,0.2876199924220575,0.8193994555619695,0.7506013205491674,0.4557648329187782,0.18877694684405955,0.999999873923467,0.4056588874885455,0.08831341928783824,0.21136701230295432
87,0.4727256132490855,0.3458542678906229,0.7763607811464067,0.8138893327370608,0.4716442038538608,0.2299654068697419,0.9888375721916615,0.4074832289375803,0.02181759836769823,0.2678253784077453
88,0.43894991247247006,0.39320724675668495,0.7300530883616562,0.8304422202052298,0.4695815971996941,0.22547588844570943,0.9743119786500631,0.4106877658871746,0.29455488679824626,0.24546600800439664
89,0.42514854228799637,0.41220649509094925,0.7109732958535412,0.8195861462264887,0.46338057077098843,0.13390909867571826,0.9518415037162493,0.4144361552660265,0.11253920866893971,0.10913834560059207
90,0.41816655759615773,0.4252400318612398,0.7031502392655791,0.7964387603798593,0.4626213656586517,0.09394828849852112,0.9282188015165292,0.41839634994194064,0.17404565026518773,0.08927876771564898
91,0.4221308705307255,0.41994591018641786,0.7114288420336006,0.7772726533426101,0.46183364738756394,0.040026163347504994,0.9136892123760252,0.42197441043684314,0.03327913558770246,0.06362961092589765
92,0.43628885956328284,0.4006412173923213,0.735570891467614,0.7602085149127215,0.47490079042485184,0.06565188556974193,0.9102354202661429,0.4249210819047005,0.08843674700515929,0.12850147520631108
93,0.4548460802368728,0.37308766752650757,0.7646798178460759,0.7419062102889804,0.4867586426145381,0.1115760390042172,0.9173488060433252,0.42700444849665675,0.10372067803830642,0.1444971732516412
94,0.4711353647151538,0.3269620099406105,0.7877883468840817,0.704566015252427,0.4850978503102511,0.1709189185649468,0.9380894266278712,0.4278306126049646,0.22614658813306193,0.2201800983568001
95,0.4974731536234469,0.25553934138363027,0.8137051283112385,0.6471921439132551,0.45464170223090017,0.25221279045104333,0.9648149500075976,0.427152005278522,0.2566841317229584,0.3001135915874857
96,0.5306475938723691,0.16120732875411273,0.8332357217267016,0.5892637951676958,0.38287956731641914,0.36433742403042046,0.9854608251887935,0.42447341319632315,0.25257127249443695,0.4328240830977186
97,0.5647870347558321,0.06083920174838351,0.8348438946477608,0.5535400484304853,0.27867436099436876,0.5073957264735239,0.9945073699980793,0.4192775156626988,0.048263456757664434,0.4915128165937835
98,0.5665750501745218,0.003231325103140545,0.7798001548058482,0.5312929113117117,0.15114229611707414,0.569383225653266,0.996281368652963,0.4116468134035454,0.22606226290780468,0.43578183625298467
99,0.543649466305406,0.0,0.7004421121305872,0.5030368237629419,0.046494578325345266,0.46577658923687026,0.9865666118448859,0.40350377945444593,0.5301412248166248,0.22022645499744392
100,0.519332411964529,0.03519776737459344,0.6489207882205202,0.4225125518694387,0.0,0.25855617551697796,0.9396108527862518,0.39769437539375196,0.699790633975961,0.43897697719298506
