Frame,Center of Mass distance,Symmetry,Grounding,Arm fold,Leg fold,Kinetic Energy,Potential energy,Bone length coherence,Torque,Center velocity
1,0.9999999640887882,0.009668222127842014,0.9999996002731644,0.9897102278521748,0.9999984972114523,0.12738418556655684,0.2909596526013393,0.0,0.06325789442268638,0.08384027305855446
2,0.9911129650299253,0.022824860979089114,0.9923757431354661,0.9878853910219664,0.993882065979191,0.12738418556655684,0.2909596526013393,0.0043119568749034635,0.06325789442268638,0.08384027305855446
3,0.9858684720050105,0.0338236532139052,0.987526367725865,0.9831636359666058,0.9927457745832403,0.1384446232925739,0.29347030367127486,0.011058349062548989,0.05916185153441786,0.04221154525453972
4,0.9804729222551591,0.04168647606274062,0.9822757849982022,0.9852107209939823,0.9936039141143221,0.08172709100040634,0.29573337585405796,0.014667159734829528,0.08185757970895186,0.12026667823028678
5,0.9765638582314771,0.048490684032677527,0.978332568908796,0.9845369880411968,0.9877504425419332,0.032944708944144835,0.29897620528316415,0.017091236078336524,0.03426201472174526,0.0692426166608506
6,0.9725643293981684,0.057036130037489086,0.9741635015602531,0.9842286605226713,0.9848033646170598,0.04714003720609049,0.3011984114155904,0.019696062320701053,0.07093043730119464,0.05500721449017963
7,0.9720822556621145,0.06134158137123385,0.973150843272334,0.9841532586163153,0.9820247070838972,0.007024517812024647,0.3022626425903969,0.022153483069737443,0.018283369564937722,0.04790722405622815
8,0.9727278160134463,0.06628537978223148,0.9732591784291552,0.98054509977243,0.9879095614935661,0.08936209872549845,0.3002060649467382,0.02510159865949123,0.018112187257413936,0.001484800827609691
9,0.9732401927494245,0.0635210789970958,0.9730241462245242,0.9804636078890336,0.9915677036388328,0.0798766930718204,0.2980639761805287,0.02786902623171649,0.06847377413155704,0.05827196486361031
10,0.9714916066769402,0.05993681140852524,0.9710144372560265,0.9850085285233916,0.9880318157378636,0.08708951596881216,0.30052600754199954,0.029704938613918017,0.037621572664330784,0.0732508453107507
11,0.9666319117334926,0.06295354554987831,0.9656298127241613,0.9856593359443231,0.9818680003802207,0.061636703673199164,0.30469743773587826,0.031882734696813145,0.06840718245680971,0.05782435842860448
12,0.9625596153931509,0.06819491469500287,0.9615498005469046,0.9864597093529028,0.9779199761195916,0.026927774321689156,0.3071169187929069,0.034056690142393264,0.021279670881868048,0.0423456455576744
13,0.9562654492580579,0.07163575570870685,0.9553177747459998,0.9871356190700779,0.9730743206159755,0.06622393526006731,0.3112617685129429,0.03633721891020548,0.05601962690159903,0.031243154396819104
14,0.950607886181978,0.0760418843587402,0.9491711317381827,0.9878457295581582,0.9626733294768386,0.05102259548962465,0.315872633375928,0.03852474982060391,0.031208915887283147,0.06033555283861496
15,0.9450471217885779,0.07765019703749652,0.9437167320205704,0.9882402016818508,0.9589908952912402,0.06696142350652548,0.3198875905512364,0.04071585331765524,0.06406775441333236,0.059851828810388995
16,0.9413002637277557,0.08019160063088321,0.9399562167464818,0.9857615544702966,0.9574231314082879,0.08008415112979467,0.32196600762999333,0.043318892564228204,0.028715525045675525,0.0298302504485034
17,0.9413710586680311,0.07768294709279083,0.9393098781837486,0.9854418442194267,0.9637761569266998,0.0790434986096111,0.32022220846070193,0.04604262697101027,0.0295242820250184,0.04675666664635362
18,0.9334307436478351,0.08035886206464107,0.9317337619626144,0.9880112173690262,0.9551478377118386,0.08709231170001808,0.3214100849950901,0.04868148702414451,0.12351992425434533,0.08022579087053189
19,0.9322823611639426,0.08184605770999774,0.9306458199216482,0.987493900593715,0.9585298502358,0.015286039046397524,0.3228558799937872,0.05139379520513034,0.03616400776817756,0.01981061262250861
20,0.931902935510323,0.08267002624102832,0.9295321712333006,0.9888999592763137,0.9619686368283488,0.01637855142004849,0.3216841329241089,0.05422502901946946,0.028756379046583087,0.006853875981522428
21,0.9262797101974161,0.08774400246636198,0.9243623808259805,0.9894038071314705,0.9570177335978811,0.04193419266465343,0.32311540453219006,0.05700908170598937,0.04226883632407028,0.05888965967390089
22,0.9222469101789355,0.09206079732466098,0.9205495341625829,0.9912423908308421,0.9547755522508145,0.03940682224180613,0.3256086511865558,0.0596178123634112,0.07141897594555191,0.059679627762773226
23,0.9210411232931248,0.09025143077939757,0.9194019159759104,0.9918301070010009,0.9524880560246186,0.005142407514141791,0.3282046495301056,0.06221309709332934,0.03601631754604767,0.016241859853112738
24,0.9192784509764226,0.09539587106840496,0.9174280126948348,0.9921257965657422,0.9541045389881996,0.020018087963820406,0.33000849410642924,0.06495380548439306,0.05787040696514165,0.05457376052145088
25,0.9171540051982616,0.09613438909107572,0.9152649819365952,0.9941210107743542,0.9539446676453434,0.0,0.33204270855759194,0.06745099016850108,0.004115607658899648,0.011987468909137308
26,0.9085528034631695,0.10061738627867817,0.907742115199321,0.9979361789507291,0.945220054071528,0.11267821461982894,0.3396451270379564,0.06957158479695429,0.1401465126743656,0.06651726708351942
27,0.906582466329258,0.09822350818381505,0.9047326012665927,0.9990925070855776,0.9355890182994226,0.028659381603259985,0.34768338465524895,0.07112484000050734,0.015305942609390338,0.004451115409794943
28,0.9021684634740985,0.09625852622608372,0.8993856186112509,0.9999997374166913,0.9265084580759305,0.050527817872759465,0.3533301802309832,0.07246884581662295,0.039618362195745105,0.0
29,0.8990237265675001,0.09404925182095612,0.89619799433595,0.9999370137530933,0.9133677136917415,0.0780990776580759,0.35980590174485017,0.07419994269650472,0.017151024454381367,0.028438333516043135
30,0.9004873105110694,0.09772073759475558,0.8969489956773105,0.9952098285055754,0.9211232014910543,0.17890270464636945,0.36125793730830813,0.076644042666225,0.08916630851713794,0.10092971895525223
31,0.9038655746424124,0.09471424590918483,0.8997528564309876,0.9966349367814296,0.9296203068533906,0.055212065752646804,0.35986120129676263,0.0789780831305382,0.04112404054775516,0.0318924882652909
32,0.897652141856778,0.09400992827609377,0.8947198621115181,0.9968173654572591,0.9252970923925774,0.06767031000014628,0.3636814816752847,0.08125830947162721,0.062466942030831744,0.09107268031422369
33,0.8943938587305896,0.0979228300896593,0.890931804000951,0.9944577871906847,0.9183726601937696,0.05144530527828545,0.36783235305622036,0.08346548938308407,0.016047297818622058,0.009309617190451185
34,0.8943587788541938,0.0949965486469812,0.8910190229831358,0.9911263255504926,0.9221515706460427,0.08534113388772936,0.36959522930481614,0.08557858767950698,0.03277688550732925,0.06954911020062834
35,0.88503663895867,0.09974542147880809,0.8825991778711608,0.9944786956854651,0.9140152255219653,0.11127663718184361,0.3782195703780846,0.08757309416870877,0.10716926824333355,0.07366619046648541
36,0.8857677825330096,0.10446962701716696,0.8826974139879414,0.9939755788884267,0.9198710144725024,0.036007074143631496,0.38493313287381914,0.08974829609564784,0.019338244454436253,0.06679187999065156
37,0.8795164685515079,0.11090646482569175,0.8768574145596039,0.9934682770839975,0.9131519929428542,0.07781664923649394,0.3862603090140293,0.09214371910829088,0.022854196308261496,0.0680431557068744
38,0.8711539304154201,0.11889875508971824,0.8686771921250049,0.9896586407585235,0.9033049985077509,0.1363671949742423,0.3900250214315451,0.09470086454999989,0.012021113535418907,0.04883244520091782
39,0.8542364151492905,0.13415947637142564,0.8533413407728684,0.9900213926228534,0.8925212833363775,0.2402585952415934,0.3987396064097371,0.09709047812687752,0.007520298055138695,0.20934135065921408
40,0.831627780674123,0.15309981802224995,0.8328871123081746,0.9844201240747089,0.8598837752967603,0.3022969869654506,0.4129209291904176,0.09932167522099926,0.07893495463342001,0.18579701636115037
41,0.8173294065861819,0.1708653575660567,0.8199190267987823,0.9713273191619176,0.8454188002668108,0.2864981815980796,0.41800864158389645,0.10138374090166748,0.024507314207912852,0.18865388234859662
42,0.7915112143573513,0.17736859256063162,0.7963533759063811,0.9680167148505617,0.8191033737923747,0.4421361464213381,0.4252726037347255,0.10280788048388813,0.19558118822332504,0.32754134130897355
43,0.7749979143469184,0.18116414861681912,0.7815160498945359,0.9572899295661637,0.8050235867886048,0.2828109157454032,0.43667054579369524,0.10405920815906237,0.19324992082721637,0.21554697990736454
44,0.7742712090032273,0.16571055243307928,0.7804244354753754,0.9480485011991249,0.7967286542163062,0.1780866728883015,0.4351134401541791,0.10504077045398545,0.008144610369548465,0.16091331556220698
45,0.7800787140872818,0.14749736598693508,0.7849772663455377,0.9346732651015567,0.7927853012274926,0.19112928172009805,0.4245781893281011,0.10594227351119899,0.09776038276129558,0.14588628095246972
46,0.7877577385296549,0.1327381006002284,0.7921989980706281,0.9174211978538402,0.7917193667947111,0.12374947075302377,0.4133177212819317,0.10667994610837746,0.004636737901315223,0.05473210894342998
47,0.7957011702209289,0.11098875615563514,0.7997429809825344,0.8978472872766754,0.8048766200326912,0.2403708070702719,0.4086012882706245,0.10740686530094934,0.01842942126675764,0.16787385202775063
48,0.8141670124638889,0.08359224575784047,0.8165468655190624,0.8787058493591813,0.8344130690106397,0.39831545009178226,0.39831243126780297,0.10783827920781132,0.09065583228081159,0.20351797419416773
49,0.8346509961566915,0.054200526463687206,0.8338905896505995,0.8709230032157564,0.862037990998784,0.3553785590348639,0.3826158506119347,0.10780603331571119,0.3873344958148964,0.23389490792766673
50,0.8692882471097589,0.021491014585601775,0.8636139006854091,0.8369751541377307,0.9135629570884087,0.9194116142707295,0.33527655681036295,0.10855101932861008,0.48478907018522865,0.6281782682432245
51,0.8955433421094317,0.0,0.8857721126336717,0.8134723201115492,0.9278404429840712,0.5032852501190107,0.2781683246134574,0.10921510113419816,0.3541801189251339,0.25800090317458335
52,0.9045756971722114,0.001333432240071605,0.89245584095285,0.7900326521910678,0.9277604636288795,0.22933391130769584,0.25596261524147235,0.10981092353422435,0.0025122367357603447,0.06755955904742934
53,0.9145480697751763,0.011340032856135787,0.9042753901810234,0.7747272460764583,0.8838690707132149,0.3344704008882921,0.2361582895047591,0.11099065817900015,0.14046434015923742,0.168792336475615
54,0.8812137625694743,0.053887740871983406,0.8743813135600383,0.7550637342162053,0.8628959343770697,0.6065749722640956,0.22663091802505891,0.1123540733715024,0.4341555956214901,0.4876081734206125
55,0.8747136998729934,0.08101061551921857,0.866887825848344,0.7459955651141026,0.8368364019748911,0.30272820840782383,0.22090333294302097,0.11419127897526436,0.0330270999142415,0.2048079854266412
56,0.864820781613349,0.10335173374355523,0.8574360424629149,0.7428503913103826,0.8273499438622341,0.237478574377845,0.20772834073317772,0.11632283287371378,0.04199972045303883,0.19736344755414048
57,0.8527272382949652,0.1247919585844666,0.8460580967129745,0.7444020789429872,0.8137919780505757,0.23023465756404826,0.20224294749176722,0.11879737850445926,0.0958100986073103,0.19678438957664804
58,0.8449513959621522,0.14126319458013512,0.8385398204484452,0.7461368328627406,0.7915185868464818,0.16949933709699624,0.19979744493656168,0.12152506895276875,0.10057129784984228,0.14413591097369668
59,0.839660149722548,0.14400431616624543,0.8330808302580835,0.7489891230256801,0.7757982242960051,0.1026204522054486,0.20092177837593686,0.12431306882064816,0.05390412737787021,0.062370716184941416
60,0.8194012710156071,0.1698378126512867,0.8144380023392335,0.7590499028794601,0.7627765846541195,0.36054080235363695,0.20846544942259732,0.12729180172054158,0.18539544544488834,0.37885985259561206
61,0.807085202933021,0.17760559236842952,0.8029131614613975,0.7645482127007549,0.7582838609800482,0.1621155841050788,0.22023420060872834,0.13036752334892743,0.08495715524858734,0.0760252833754888
62,0.8009725382528454,0.18855641062754333,0.7960770294470323,0.7675912429733961,0.756734214983625,0.11853619603705699,0.22791225227766287,0.1336195909909062,0.016254520242406565,0.13591037958641658
63,0.7949676124382399,0.209773222745607,0.7895319334048014,0.7674661245671367,0.7429428015896684,0.1754294304098209,0.2307825010502601,0.13700099421013556,0.025613058214766997,0.20894847496305813
64,0.7788162145906831,0.22970153279804603,0.7739775755499253,0.7613241758171057,0.7205433074127295,0.21690026214900815,0.23903945147763245,0.14047474068603047,0.07008611313084655,0.10862364984154853
65,0.7677074262331394,0.248092824661622,0.762841088666458,0.7561170149622075,0.7044627612144195,0.1856796423144285,0.2477424311679848,0.14421337037894796,0.012462944232696074,0.12987363887080183
66,0.7564533586227414,0.2664813961886103,0.7505450483671804,0.7486785224749855,0.6900662349473533,0.24380998088169256,0.2504276853075802,0.14827416110778122,0.017031970839812186,0.2047992518316302
67,0.7406959737679187,0.2889749790502966,0.7335593811098812,0.735081606964837,0.6722717018597987,0.2915790945640806,0.2573992636867515,0.15254031609997445,0.020273505844684365,0.17429951047690936
68,0.7243337957945416,0.3175245382257481,0.7155702365101616,0.7241046065177603,0.6508423364546804,0.3067773322672544,0.2680603685815397,0.1569787579454808,0.07344729182828443,0.2306068292058722
69,0.7088134854946472,0.3394957960894379,0.6982659904442452,0.724428339327528,0.6308626759464815,0.2887626148057808,0.2759976297920394,0.1617504704505695,0.03854238458736979,0.18732078434783123
70,0.686288754520827,0.36230583683791673,0.6761435841834046,0.7308592101919156,0.6061605503189538,0.31006781649361803,0.28720569726765455,0.16678419902293934,0.048600269842677,0.1979270712030461
71,0.665801224191585,0.3811761275441409,0.6563522199833313,0.737416176888132,0.5926931380466625,0.29474580380046506,0.30289352649986556,0.1719465099262556,0.13390555784731425,0.22410103822585598
72,0.6569157981166565,0.3897867048829795,0.6461916676058147,0.7389456684053448,0.5775967262106074,0.159318217508513,0.3136062681080393,0.1772004362736431,0.02903167859860333,0.12989251798893192
73,0.644851230978589,0.40289730862692635,0.6337055817348224,0.7322089695785572,0.5619072406545259,0.20524616666923126,0.31958209986357633,0.18261131979193607,0.05730132913400214,0.2182143574423555
74,0.6367435283742494,0.41353499497177215,0.624484240081275,0.7258633370878476,0.5508929756852453,0.15879574034924945,0.3246031610791822,0.1882413483088438,0.023504369342934046,0.11390162157176562
75,0.6273249271826944,0.40864402627044766,0.6145752456102722,0.7363934524022807,0.5384043239284002,0.1808607249444329,0.33287301744989256,0.19399552197965286,0.07641177288849348,0.11352412289349063
76,0.6161545443547416,0.4036595216352405,0.604430300840092,0.7583947948005734,0.5345937347940283,0.15483210065642064,0.3442928786575686,0.19975517285175662,0.007196364415926268,0.01774541922938352
77,0.6009225261012598,0.4200154971668525,0.5899280793387557,0.7727992447063835,0.5273165569932627,0.2728774734932361,0.3538933627078427,0.20550216070167004,0.14832279223386638,0.2744639323807051
78,0.5874664791750644,0.42047925054366947,0.5784877031594566,0.7827574489016812,0.5152780763180766,0.17106394947508963,0.3639440437616427,0.21111765657054393,0.0899935599962035,0.04707068878433617
79,0.5781447426645684,0.4186826155307992,0.5703487949795798,0.7880921733124833,0.5062343660359768,0.10530926126668037,0.3736048050234641,0.21661996851659476,0.09921626923400145,0.017839758317436658
80,0.5764745649655384,0.41803219873640046,0.5690882511633366,0.78636284305808,0.5090251522249902,0.04835338701239499,0.3765564655529705,0.22208645126611268,0.03920231541735109,0.02124370826836027
81,0.5726778692841594,0.42108338824108077,0.5656141813886463,0.7798625368847397,0.5042656048414024,0.06581377728718991,0.3737423746730026,0.2275256458635979,0.018526635683651604,0.02854281663780938
82,0.5693173989615449,0.4291767434446563,0.5615764015606581,0.7645410170234508,0.4930258709636738,0.12067025235848063,0.3674661899577812,0.23303135220027707,0.0525446685673893,0.0654755666536302
83,0.5686361135347755,0.4327545966687776,0.560030330339572,0.7565962958054316,0.48654166729065834,0.09873561138429363,0.35917252817713885,0.23855712551903585,0.07909825056698565,0.04729045847335431
84,0.5664701534132253,0.4356517297189939,0.5582125031318862,0.7442269705086682,0.4821187629194024,0.08625357962277587,0.35313151712162666,0.24401620563087248,0.00673895057524715,0.07896546159846164
85,0.5654054817384396,0.4361069293505293,0.5575735093255457,0.7299342049068589,0.4844469800745027,0.15542373131516982,0.34559816768832424,0.2494282269909405,0.04630813270985153,0.16065549814279945
86,0.5699520075877603,0.43764183975129073,0.5617333957285944,0.7069274144502031,0.4924007592782156,0.18124645830425612,0.334418248429879,0.2548777563219409,0.00547831586715891,0.12148065323254569
87,0.5799142219030973,0.4395203296507516,0.5700090999963261,0.6761241966102225,0.5018420295320226,0.2620893282823641,0.31935670261006,0.26041491171466413,0.09115176995311813,0.12530378734369205
88,0.5846097083280953,0.44950186235187833,0.5733353565485745,0.6385169136596229,0.5017618309084982,0.29933321545480307,0.3037581050068564,0.2660803198075916,0.08689392951741838,0.19444476561111
89,0.605532420485347,0.43225706889160165,0.5929991056062873,0.5950588971941542,0.4933146428880319,0.4883172072697932,0.2819533696445368,0.2716868471551355,0.1407475795963298,0.46815022268492407
90,0.6145242265806485,0.458216251092716,0.5981147284351966,0.5498673353696388,0.5028751902503925,0.5281761094200196,0.2601728909783216,0.277844408635922,0.1172333886286664,0.3953840260864099
91,0.6207232915148194,0.47257252110706743,0.6020478454845621,0.5013989947789826,0.49433612494894974,0.3869102351139263,0.24436119813515952,0.28432270374998864,0.06791634868915498,0.20798800951305482
92,0.62915204666799,0.4929714106514043,0.6084497187770915,0.4501411679187516,0.4939382699582634,0.3791993320695591,0.22380065421101558,0.2910299526387051,0.08971668602775248,0.1356555405389211
93,0.6310745886107039,0.5188258219548316,0.6094522780249702,0.39515467638529733,0.4917505600145065,0.3953391886387746,0.20383231582872094,0.297974562462973,0.3825002221465746,0.10495311816088343
94,0.6691244525279821,0.5012047328415312,0.6412339570393923,0.33969138088285844,0.4871448218120477,0.7669618520964046,0.17901940086026144,0.30505174249132705,0.649446833237882,0.7950427295108138
95,0.6704258424546996,0.5284561652653272,0.641990466948044,0.2941188011697406,0.4851807433341709,0.36101205929601876,0.15558756555329098,0.3123183273141217,0.015123643869716184,0.11580414821188525
96,0.6695170369225983,0.5634419242376104,0.6396823772510103,0.24482970167397936,0.47852686899366603,0.39833396008804894,0.1412005886007481,0.3198399811044962,0.05008958797034807,0.0853473984708004
97,0.6653282651794352,0.5963522063254636,0.6343519202975556,0.20086600361813464,0.46449939750526015,0.32680610180273134,0.1296938284796034,0.3274900718729331,0.02101242953525606,0.042853469108742805
98,0.6591807900752589,0.6307914078518017,0.6276883900584629,0.16693553866096153,0.45750415206596307,0.3017631871812249,0.1214585628247163,0.3351984741046637,0.07832463600422758,0.14164741579043147
99,0.6561499045340741,0.6500831330265595,0.6236845797287998,0.1498314952158039,0.4521452116761192,0.17975387112183328,0.11633223072908778,0.34303986764258076,0.054076350462178194,0.11068769412168744
100,0.6530066235344056,0.6696688118588271,0.6194475733836069,0.1332955988391002,0.4504191109906159,0.1433737130766283,0.11443830074893563,0.35091118918994507,0.030717168472472352,0.11851270623818486
