Frame,Center of Mass distance,Symmetry,Grounding,Arm fold,Leg fold,Kinetic Energy,Potential energy,Bone length coherence,Torque,Center velocity
1,0.19799391841370484,0.585005106980043,0.6917979323507185,0.4746305044457201,0.4254618129116701,0.008874042334870776,0.6921583878458125,0.002703626052027022,0.01616555655987988,0.022144940034660776
2,0.19513683420811084,0.5849069374461012,0.6854341306460273,0.4731348009866065,0.41896889368270446,0.008874042334870776,0.6921583878458125,0.004673386383619271,0.01616555655987988,0.022144940034660776
3,0.19355961090864995,0.5841805573165872,0.6813316538517364,0.47381788755576293,0.4155417760328103,0.0063781165510838,0.695160950187845,0.0012716844734465267,0.02577318662287708,0.01329387149432609
4,0.19394922495581865,0.5845231068979427,0.6821827523641003,0.47299480574637087,0.41739548198135823,0.0021581741912018114,0.6961707045437038,0.0,0.010120641920949724,0.004913666616989622
5,0.19467710751255768,0.58435355992167,0.6836789984368566,0.47384948635026286,0.41963889168699603,0.0,0.6958445984178879,0.0006149772762856612,0.013169253521554508,0.0
6,0.19588959614783485,0.5857219523287829,0.6857649755487932,0.47549650050007114,0.41976037588849446,0.0014243301806551411,0.6955730824640197,0.0026308694109259674,0.005985824952703906,0.01779656896917253
7,0.1993311036504336,0.5862708357139866,0.6931320644211202,0.47509859747409483,0.4233118662441273,0.0126932508009671,0.6934994151506967,0.007044291219942939,0.01200759950118463,0.024750626425939844
8,0.20288541299624294,0.5881094664694426,0.7011699413338027,0.47430154523791923,0.4290169502115173,0.013845090254796558,0.6898006334310316,0.011986482041020895,0.011936139512108488,0.025110960443206008
9,0.20663689375444244,0.5884584542049428,0.7095936661143377,0.47542696626919606,0.4347613911974989,0.013977010984170807,0.6858183355796053,0.0171835725239849,0.027236323048037633,0.02663183715177258
10,0.20964259576715608,0.5885174915078804,0.7163863255242393,0.4751691509454047,0.43992311284807445,0.008171417730811953,0.6819400508058605,0.023320698564573746,0.004402093813107042,0.013153616336331466
11,0.21411976017545054,0.583440434776424,0.7253857204355844,0.4760503819233876,0.4426749077908622,0.015459438548647177,0.6783658143384206,0.028077075335113718,0.02714784472701435,0.015396169520745554
12,0.21672521655281235,0.578411461771036,0.7307491298655386,0.4762160730926508,0.442878322651497,0.007947343833536086,0.6758557757999653,0.03183446528903852,0.017008151478622117,0.023059119932722572
13,0.2186178731647193,0.5738283938731323,0.7352469663186333,0.47517434565378924,0.44475545506137465,0.004951707953554819,0.6744288456425548,0.0345619696554266,0.004277210153191773,0.02303178201109119
14,0.22118676345149443,0.5676146891108684,0.7404705937771701,0.47473464404844407,0.4494281710573731,0.012692481511552693,0.6732365016910099,0.0366041365658501,0.016051246074864932,0.02329102563163035
15,0.22382354813209035,0.5609555279445363,0.7459936358727098,0.4751988559316245,0.4527278395853035,0.011846483999440669,0.6719447421623744,0.03725716054855585,0.0284427907640132,0.01712406529967703
16,0.2247356982249351,0.558139020162541,0.7482218762928332,0.4765617875516465,0.45259671143395275,0.005358568239894284,0.6712662415686806,0.03639785812090869,0.011289363268207044,0.005302022238258481
17,0.22687697645229202,0.5555037729601486,0.7528607353857321,0.4757856910819869,0.4543549087361796,0.0020703397871520987,0.6704494936359822,0.03555769247184827,0.018056041629092443,0.00788057082966342
18,0.22756241930159676,0.5539636786459724,0.7550120543659635,0.4765551306528311,0.45497308754802845,0.0014722984639988954,0.6698136822116173,0.03406652477484014,0.006534281415586052,0.003376321316174651
19,0.2291286313595769,0.5542796395003033,0.758650107627998,0.47657190757577034,0.45530208845977166,0.004352654896747694,0.6694847773439552,0.03217183361225801,0.005840981348420117,0.01043683312241669
20,0.2299283008564518,0.5564910519174073,0.7609048156403437,0.47690442438355174,0.4551212744959441,0.008671495393013828,0.6686296239495799,0.029972631947450108,0.026792676424155268,0.015022571757849469
21,0.2311005185919853,0.5568902085496753,0.7634436367129398,0.4767569903858583,0.4551918760191177,0.0028334406332394734,0.6680872102396025,0.027657163899499418,0.012209330751347447,0.016351198642659028
22,0.23186211505596718,0.5572601720535051,0.7657210903123501,0.47630745710817424,0.4563610803990933,0.0023310453699223696,0.6678487818965263,0.025057354927720116,0.012418648870357705,0.00974825060125508
23,0.2325915610473587,0.5574929069508492,0.7678624839454987,0.47506443735163817,0.45856236757389485,0.0012567581784112452,0.6682735311651805,0.022326899362351892,0.005150557234865723,0.01376951465129873
24,0.23496169010714624,0.5563935179874707,0.7730708098272826,0.47189932113849614,0.46137939984369647,0.00870350456632657,0.6680404241049982,0.019741191986036494,0.004238768433594708,0.02638761802600177
25,0.23823264240814432,0.5541963670472532,0.7802993573965765,0.47008775267615044,0.4625021410264919,0.018154161084831054,0.6670152143979177,0.016920361963682674,0.01287099532451883,0.037412066841200145
26,0.24113546837165034,0.5510128856427424,0.7867049282702411,0.4666148328771946,0.4637462198840738,0.017824609327727392,0.666558706764116,0.01426679951276961,0.004491893718763643,0.04595460468791114
27,0.24450177819470698,0.549267367359526,0.7942349582571818,0.4637914832101825,0.4653567545037102,0.027722208201703517,0.6667736530427621,0.011621409378449557,0.009410977773072694,0.05992414270890992
28,0.24976839092037853,0.5497733683861915,0.8049377908616393,0.45931560571045854,0.46660457243614706,0.04583084592926461,0.6665608562744889,0.009666391258523642,0.0707218395947335,0.09503639829693579
29,0.2595268784686677,0.5516992602393447,0.8248306677526626,0.4560910748072378,0.4733488856575226,0.08967457783443596,0.6644785987475863,0.008650950358793921,0.009315872917628169,0.16931781452337707
30,0.2700791861871787,0.5523300607952117,0.8459145862936416,0.4563116170983075,0.47222864816104326,0.10825033778811809,0.662465604619703,0.008287105744386496,0.004827030630957968,0.20838092392202637
31,0.2796550722132691,0.5548916525972668,0.8651102075520869,0.45983326017336196,0.4695604872341198,0.12101578668413536,0.6605341068301683,0.010130895823157264,0.0507794487522128,0.22076802662237496
32,0.2945155262365378,0.5580135327644125,0.8953816890428584,0.4654137055132809,0.4680211185932118,0.1561829288890573,0.6586586196507439,0.01270945118347667,0.018147623681628717,0.27479713915631526
33,0.31170626995233086,0.5671772817221585,0.9290335783276366,0.46305758778737927,0.4812353306272468,0.15080558681759776,0.6563258253617414,0.017074812305972017,0.03377775848380716,0.25122871755032106
34,0.33004927113354265,0.5882007933292495,0.9642933738398519,0.44663180754308746,0.5035639541676863,0.1452642853233537,0.6505774635681351,0.024388499247907414,0.024516219165648858,0.19950516122373757
35,0.3524757945559104,0.6183045884297125,0.9925537318779392,0.4184731670283064,0.5346058437585354,0.17912690176401921,0.6411877976987356,0.03524523209756884,0.026469237350441897,0.23814063752244655
36,0.3785724632276768,0.6563677351067031,0.9437173022246189,0.381187608857263,0.5709323256606578,0.2156818195349462,0.6272884951357405,0.05034337600924416,0.049800720633966185,0.30053905346753224
37,0.3984369048378125,0.7017564058703639,0.9054182827243732,0.33761541389945904,0.6141636744648545,0.20919227229623047,0.6123880709277002,0.06944489111684861,0.11356741207483709,0.2819370508232434
38,0.4309037186344367,0.7359800085249057,0.8450808571386722,0.2935554835917132,0.647967001038336,0.25323411478136293,0.5938124705915577,0.0921065808458283,0.05869586213524419,0.3307763675900998
39,0.4723481278401164,0.7639982198539096,0.7704749180089584,0.2510887372299825,0.6848427114091024,0.2952876937637308,0.5650265788552488,0.11845852531419446,0.08834148405817108,0.3714623389927405
40,0.5253515756322192,0.7812718240317652,0.6794805766207651,0.23670180755517917,0.722270953802239,0.3549885067233303,0.526515455174231,0.14781182332379741,0.011696846810946175,0.44416265644566816
41,0.5785498239040158,0.8016435712038074,0.5901747849050589,0.28858581396469374,0.7618453462592785,0.35920766260041836,0.48044438924982585,0.18008286622320746,0.13778990845893652,0.3883252350286032
42,0.6454053609116075,0.8070692727227188,0.48316134688109497,0.3284646844241234,0.8076669250853376,0.44140188044594936,0.42654773097762644,0.21399417120630929,0.05032595814569927,0.444598219436762
43,0.7188253443192684,0.8058487566217305,0.37153344957581086,0.34930837580391405,0.854059095559018,0.5001409180036962,0.36393974940698126,0.24721151548126344,0.06075104341316021,0.4641058838433947
44,0.7922873078488252,0.7982764355637989,0.2661026908554505,0.3473321449538191,0.8960433800976907,0.5549976265393369,0.2967033607134384,0.27783348316249157,0.004076585284892368,0.4431543475734797
45,0.8571822021232447,0.796716227920004,0.17719846214047508,0.3661049882056436,0.9307163980800185,0.5857235938577593,0.22996464832276808,0.30399377020785173,0.09462239325008757,0.4300138731952609
46,0.9014064110478403,0.7948053159433139,0.1185785351562549,0.5259049131717289,0.9560090407385228,0.5815127230091427,0.17069873010087896,0.3251255879157646,0.16538114030071013,0.3729235829999534
47,0.9267202822082389,0.7996753169443583,0.0868906239255199,0.7029264555195541,0.9642952594400547,0.5575881493228837,0.1250611338583886,0.3403952248320712,0.24113150112193737,0.33927879344397066
48,0.9539291675075577,0.8439043775393501,0.05408280269892151,0.7928400769918301,0.9615977740824853,0.44575872667017247,0.08628382454683256,0.3488985619547321,0.32935409473253763,0.28857691231538374
49,0.9751763988178752,0.8817456061457759,0.02941624741712424,0.819221123150538,0.9853331269556356,0.2662266142048133,0.04867208664917052,0.3552665220010771,0.003714852396643918,0.25377129806334514
50,0.9444250320850035,0.9239852264576015,0.07490452665445986,0.824480889787452,0.9841268038682012,0.1966394115641649,0.031015773439616347,0.3642724936572625,0.26621573179174507,0.275133637521068
51,0.9208520165622021,0.9388281215934798,0.11064197949504295,0.8139942528357471,0.9568708467123215,0.12477131198969546,0.03840083473154048,0.3752786687359625,0.0039118922431661965,0.07657983770077136
52,0.9016487802894917,0.9413002722137205,0.14066160530358418,0.7994431612287266,0.929593947387227,0.1224975783495469,0.05222572713939934,0.388422475348389,0.04304420646413934,0.06396397404112274
53,0.8983925951519889,0.9249800010727544,0.14642740484652847,0.7843804760576156,0.9126173559315265,0.09944442323157751,0.06253231969049827,0.4029023252579959,0.04684912661962661,0.12067351811709648
54,0.8912236087289864,0.9108392402818887,0.15673239645541098,0.7745709152484599,0.9079566007026896,0.0804627030455426,0.07058436209161859,0.4181730093053864,0.06081772933212136,0.06891008753586479
55,0.8866925052884759,0.8993610141086472,0.1630593916646694,0.7687422978935872,0.9092843650456635,0.055323831319462904,0.07809143342746812,0.43381750582108575,0.08439076368655475,0.03535043257332365
56,0.8841059100352817,0.8895179420230116,0.16668421113059262,0.7673751025884843,0.9094473523562407,0.025914321479231082,0.08439748559446476,0.4490540708801339,0.028594075643528446,0.044988730842045355
57,0.8914577648065144,0.8773016471834628,0.15451160004559925,0.7675392280413602,0.9136259764466294,0.043588677926938824,0.08803193741205223,0.4628286218052333,0.001828230809540749,0.07938469054874285
58,0.9023020064429532,0.8667896183397903,0.1369478712700445,0.7668133464938697,0.923373956636382,0.05303422670178072,0.08675820906238672,0.47507662283165497,0.03232379736787477,0.05178259866466004
59,0.9180469027415148,0.8560792883307654,0.11313861784253616,0.7686235892656303,0.9322195971010101,0.08419835686066506,0.08238409562177551,0.4853030309379081,0.03781448457086394,0.09182897797289657
60,0.9310731144687681,0.8461644878634291,0.0929777565802726,0.7705414735990663,0.9420166835306386,0.07139355998911746,0.07799832574490576,0.4937171566597085,0.0060646464070366135,0.07785186598054447
61,0.9434576515136829,0.8320568758785941,0.07413862070455654,0.7736000885275941,0.9527724132203736,0.07409095791876771,0.07510132894323045,0.5002099151679946,0.04522467453434132,0.07210041594317677
62,0.9582773594287174,0.8087856677392233,0.05242816462896644,0.7758172566325551,0.9588712068047482,0.10302217128964444,0.07276164942643082,0.5047047247425006,0.0011065792723963727,0.11427230766019837
63,0.9714226324797052,0.7829575912409498,0.034099770571895074,0.7809948971166255,0.9589817210083312,0.11849913431356661,0.07003935505816349,0.5070801828430478,0.03686278814886419,0.07728565808693429
64,0.9785181214382364,0.7648105804195052,0.024543315555519234,0.7932126519904406,0.9582785739587504,0.13191788013087974,0.06901622933054027,0.5068680659760716,0.05267303522937926,0.04140808154097284
65,0.9825701450039127,0.7550849752579254,0.01809928396190561,0.8045757972664686,0.96406452538619,0.10288073634027685,0.072316577571868,0.5043454514745511,0.03870848007797272,0.07398445746593935
66,0.9902571354628372,0.7467249151211638,0.007034176188919369,0.814633863144492,0.9797187509442246,0.07619626408905587,0.07611579837730564,0.5002711455148314,0.02946856095413794,0.10186804551237871
67,0.9950528827737805,0.7372260648879656,0.0,0.821066766620619,0.99568285623614,0.05985034630430246,0.08016801835672598,0.49529727062379664,0.007336428115915339,0.09804773623390613
68,0.9906561894064431,0.7235972457122426,0.005841480314449509,0.824153744889187,0.9999996706778855,0.07243001573675362,0.08987251698074804,0.48982083591744235,0.10963774580274402,0.09256480866341088
69,0.9782287280989201,0.7010628992608969,0.023080981085294966,0.8232314000133528,0.9983361626343168,0.121894644295001,0.10690895641779785,0.48426861641556973,0.04208334501468536,0.11643732038997662
70,0.964361413828359,0.6647218218417255,0.042265436328272774,0.817422262066473,0.9960800456894812,0.160541161005397,0.12916667282677224,0.47907531795396024,0.08514528340334357,0.1353507685759858
71,0.9464340450804684,0.6153449568838573,0.06684390415471068,0.8053944542372745,0.9914661798483893,0.21510164492661177,0.1554565445343007,0.4746442682186031,0.07776063560970962,0.17183375112833998
72,0.925294171610622,0.550923395289434,0.09488755878148629,0.7875124824985307,0.9807158735236069,0.2745255180829896,0.18719575127097796,0.4712432624538292,0.103796751924232,0.2127101199940319
73,0.8939645701079287,0.477104578314861,0.1383998668370563,0.7646760096920722,0.9613337612873127,0.3354663555522628,0.2260584985885554,0.46910656891373204,0.12637531424600837,0.26588148703775677
74,0.8536748230128905,0.3928882030550987,0.19527582762757326,0.7354519077029965,0.9350366365028305,0.4087370907923355,0.2731576184158423,0.46835567234129993,0.11733607546699538,0.34594378748713117
75,0.7975333021537847,0.31053269790688187,0.27852012716849,0.7002398305999115,0.8859510093702685,0.47864760301657855,0.3287805351148392,0.4687805775196731,0.12226671325750366,0.45091173543662527
76,0.7278568851120635,0.23272130896563462,0.38615555360965426,0.6565469124183173,0.819795772400197,0.5565205746449182,0.3928343119578906,0.4702446333414715,0.09656538143064347,0.5539786021324924
77,0.6407933141911213,0.18540029440811392,0.5259652332886173,0.6039777567550014,0.7437798677903845,0.6280072528753855,0.46349769342155,0.47249799295966394,0.08439231157321275,0.6259189517950389
78,0.5564146551405219,0.1690101800702609,0.6697256146627293,0.550965866320128,0.6487839327499965,0.585866700168708,0.531959279847243,0.4752642685070614,0.31149410722575427,0.6203324477650598
79,0.4911799582437222,0.17883765573882504,0.7864675470525087,0.5058154540076043,0.5579227704528135,0.44856222173579585,0.5861856833704687,0.4780651839852936,0.21542124791155481,0.49916413111777336
80,0.4387333839320791,0.20195043576002356,0.8822636886482125,0.4790528275093716,0.5151071977069521,0.3680817227882786,0.6288519719557627,0.4803817797948361,0.24293592164747815,0.4207772189961766
81,0.40090492826764307,0.23089769183295075,0.9493929465315579,0.4737201355395826,0.5143531528927345,0.2801030794152906,0.6697683453766023,0.4815497783863554,0.09664538086904668,0.2351426381584377
82,0.37668896411712793,0.268507189646602,0.9926095619552807,0.4867405329604547,0.5122903560627231,0.18789714059016763,0.7065330652736221,0.48133335455060133,0.16499321258677688,0.08068529083143945
83,0.37036384198248323,0.2988340323598201,0.9960644098524081,0.5059948851580917,0.5133355206274381,0.14875944425060797,0.7317570728509362,0.48030065863611004,0.01413686793232934,0.06215867760633664
84,0.37656338919025256,0.3333515848187341,0.9896501543000452,0.5200096799457427,0.5192124805995794,0.15932287428426262,0.7447210492957365,0.4793625828444207,0.007577821983332497,0.17441106572416157
85,0.3796382212236021,0.383700439730742,0.9804253712986902,0.5213742021080613,0.5250986423754945,0.15189998775920943,0.7493094237888086,0.4797023693649757,0.05415520768635921,0.11915034409258408
86,0.3846387242496819,0.43898081587932297,0.9707068022799576,0.5070908779618147,0.5297858392017272,0.1535654103807909,0.747250820889263,0.4821580855433885,0.06745050655733995,0.1535009965990976
87,0.38647860428864167,0.5024611496978233,0.9699127745133219,0.4814624018463028,0.5347489189249818,0.15826192737611708,0.7398410492640771,0.48694887593848357,0.016316370449115686,0.13659534949768729
88,0.3899363717100483,0.5681314570339342,0.9660389942580673,0.4419651199811628,0.5396397398519179,0.1691940617020579,0.7289560674696068,0.49443475082588356,0.002156571570814151,0.0936957429697294
89,0.3850833725934521,0.6445857159202036,0.9795014869077178,0.38981730929046166,0.5360506764606694,0.20219554940779483,0.7176602432023511,0.5052043124559359,0.05093365303866928,0.13506459817950797
90,0.3783926489159278,0.725826043101081,0.9962455474366714,0.32430879137583657,0.523207814589421,0.2304418244104696,0.7068630538524114,0.5195519095938705,0.057315876391236406,0.13308183117870234
91,0.38203287455410473,0.7971779477814109,0.9926360295475032,0.2582074484616582,0.5165019580949054,0.21946189315345535,0.690749905442379,0.5374096566177673,0.1887349334854688,0.060808541981337276
92,0.4054826717033159,0.8512293730419285,0.9504715009145734,0.23148447201123373,0.5309346585470565,0.23036477881669834,0.6614500308506315,0.55835220960575,0.2566836766488497,0.10553259989697422
93,0.45081491124810513,0.8798838208097407,0.8677023773652532,0.27578272932776476,0.5687458329876024,0.3083660286426474,0.6176732147315896,0.581819718547505,0.1271616603919413,0.31340291262121145
94,0.5115814960037891,0.8938897595844854,0.7618096764494077,0.29901385764234417,0.6108625552768683,0.3987741670407158,0.5613830969431102,0.6063246408196931,0.25475704351975736,0.4555752359404686
95,0.5870279057638694,0.8905985527323367,0.6364666036999856,0.29403099044683095,0.6442834584051246,0.5443154217416151,0.491016612769907,0.6296381821183515,0.24146778759445497,0.541459497626493
96,0.6680124567070836,0.8772051741461928,0.5095197602844097,0.3436788181470982,0.6715025350705294,0.6953369067058711,0.409301452259971,0.6495769159475325,0.05470761551842066,0.571619767793032
97,0.727572145390151,0.8666919446350405,0.41787778999905084,0.5504447646396189,0.6957412796574857,0.7098066101851469,0.3309528335839357,0.6657907954431381,0.04683892627278707,0.5219304097835249
98,0.7721843576945139,0.8746245684271986,0.34717582072197,0.7653776123992966,0.7141051059629673,0.7091452174711032,0.26610665414708384,0.677227366402385,0.31405221749612683,0.4841532179336725
99,0.8322910909892623,0.9105828237576036,0.25840723841712887,0.8475054862302233,0.7540578070790005,0.5822657654782216,0.2031596511627171,0.6837979545972157,0.7163784995423541,0.40233512866756277
100,0.8574161491868761,0.9468494255794176,0.2222971715048045,0.8847522524557528,0.8041920749597479,0.27499302136881804,0.14881604979188787,0.688745893549358,0.2641105474522269,0.3497414848534825
