Frame,Center of Mass distance,Symmetry,Grounding,Arm fold,Leg fold,Kinetic Energy,Potential energy,Bone length coherence,Torque,Center velocity
1,0.5152370504558724,0.05218934631331167,0.9228766318059429,0.9999998294887062,0.5511705595540776,0.03279301028148512,0.6173865315858272,0.07253445239958914,0.03584631112291727,0.033355704449085165
2,0.5136466830311295,0.05512559810268989,0.921499695859405,0.9968963892372429,0.5501977475846973,0.03279301028148512,0.6173865315858272,0.07130526278328042,0.03584631112291727,0.033355704449085165
3,0.5157941538563617,0.050787342741285255,0.9262480472921083,0.9985716076351878,0.5530684894394414,0.04096915379884631,0.6178073518420281,0.06663548247479631,0.03168790769597761,0.04080072220937355
4,0.519485780999306,0.04752047135670383,0.9333806041514945,0.9993550946239027,0.5545580213379725,0.03904051018724456,0.6177361201923668,0.06214077873797881,0.04401691955929876,0.053507802464586356
5,0.5235757761232351,0.04557193038149674,0.9412052110235537,0.996430099166209,0.5550155114658197,0.040181201038266806,0.6159332635338504,0.05839407286812949,0.03903927803798195,0.09276369994065052
6,0.527932840385497,0.04104146166862045,0.9495914816740135,0.9962313247622276,0.5549912929886078,0.04241677140734807,0.6145359945164179,0.053742672847402875,0.048854892639284664,0.07650532883777905
7,0.5327215090470672,0.03564784822584531,0.9588575012018623,0.9956377648812882,0.5585070436894203,0.03495706597071697,0.6131454911716681,0.04935480147600931,0.01759232014679913,0.06245969591585788
8,0.5418955913554422,0.028989924646351754,0.9746542949693854,0.9953497040188228,0.5652572143516796,0.06082271471242964,0.609070527625178,0.04508265691129121,0.06321134788278418,0.06198783431634813
9,0.5496219661429352,0.02196505188840746,0.9890641230800393,0.9956011213282531,0.5765490892968922,0.05241274660327633,0.6048784793759296,0.040807617480960824,0.036931246670712285,0.06882985450663695
10,0.5557668655999433,0.018589639341446633,0.9999993729697193,0.9950007590074859,0.5882430139104314,0.050327452220170626,0.6032498222032154,0.03672066769545373,0.04260458180465278,0.10615801312611768
11,0.5601256617704738,0.016061089801068663,0.9914454628751991,0.9955027256963043,0.5871284021447484,0.048856175576631196,0.6018822797464782,0.03272998766915117,0.08562254483692852,0.05011536047836757
12,0.5630917906419076,0.012803260703936772,0.9851654313937451,0.9948935088766463,0.5920870896266451,0.018790743200165275,0.600510192602823,0.02876608412263842,0.022984841162669595,0.04738432550304231
13,0.5680900324863165,0.007844863013598843,0.9766416104302049,0.994457667964597,0.59460533184463,0.03646201860595264,0.5992782152937486,0.025224748225519903,0.06585445505429394,0.09064908200857742
14,0.5725522327467855,0.005036611106118062,0.9692282216816184,0.9950004769751457,0.5978994269460773,0.024366146193448745,0.5972094202741817,0.021868516574316127,0.03638219612567375,0.03980738941832704
15,0.5771094127466416,0.0029883403216376873,0.9616615216465807,0.995431229345598,0.6003239288065793,0.025133084782478575,0.5944439726962516,0.018874966417098907,0.0650724612892396,0.03943155300165765
16,0.5803660009956024,0.0018255750810085222,0.9561107933875947,0.9956687242596772,0.6011237363521644,0.012827352221226763,0.5921241036442698,0.016059315810472905,0.03162231591989566,0.02843476877204046
17,0.5837222056397877,0.0,0.9503365458698524,0.9965760190184247,0.6012759371070456,0.019698144267060572,0.5902580481063033,0.013431575456323548,0.05222527685096397,0.020897331152812414
18,0.5829806329737416,0.00025289111396103835,0.9509784473308827,0.9975998327008179,0.6016536395530528,0.011264711931966506,0.5897054492925414,0.010817829813745681,0.06241599626160708,0.0202263217824867
19,0.5825970101035545,0.0018182843082914725,0.9519742542849348,0.9965840541753482,0.5989663158583913,0.005492371640039338,0.589930108253871,0.008487736889862443,0.03705709689898418,0.024943423922447455
20,0.5810564771711071,0.0032723086023873174,0.9546235306274403,0.9963341230776441,0.5988658465018962,0.0,0.5901298451731348,0.006472215058290598,0.023509829229557726,0.0
21,0.5776625224124751,0.0052255953401760145,0.9603433311462553,0.9961937935321191,0.5972110698519102,0.014129865520957283,0.5914405017028946,0.004786226556236185,0.05498515506966564,0.024769089750015145
22,0.5751616530965376,0.00753014283385159,0.9647019566919032,0.9963802249929625,0.5972430746483786,0.006523971929771823,0.5929100074469222,0.0034117998353507028,0.024694295293879523,0.020726961525098016
23,0.5702007191753883,0.011128463755447609,0.9730266162646343,0.9966365475766331,0.5930942580705811,0.023049755350487828,0.5949326547295674,0.0023428153214036834,0.010157432569966162,0.03496151319662109
24,0.5629595771323179,0.01567257577383414,0.9863088183712021,0.9968606375536819,0.5903685359057548,0.05722736337276076,0.5982300309816884,0.0017202235243193057,0.07428463085543674,0.0723022505770418
25,0.5585769825576572,0.01747530795239544,0.9942853037139509,0.9969699203754898,0.58751046636065,0.030724660650289407,0.6024224427306472,0.001316656942121127,0.02193232636374136,0.03278495072175365
26,0.5534756791500112,0.019139365875037617,0.9960648608893916,0.9965100880487747,0.5824438818506154,0.045643813344316685,0.6081603840653199,0.000923058593405143,0.0387599906635612,0.026094486404011345
27,0.5523216095256839,0.017954462556214235,0.9947495360205825,0.9916425575734975,0.5771758674628183,0.08209631302438083,0.6161821967686999,0.00044479712672682617,0.024253146752560253,0.05774727849955934
28,0.5601138322046247,0.012731974218619858,0.9908236208348244,0.9870364946515978,0.5766490416987455,0.1713612636196505,0.6259825198391223,0.0,0.037999355915110146,0.1843397443785411
29,0.565771355740959,0.023235993690105785,0.9790530393563517,0.972497746268842,0.5809352091153163,0.26111732272023813,0.6350250805136634,0.00011430151906754387,0.06992735696891839,0.4328870655630209
30,0.5716802843038122,0.048925125087010427,0.9661061161379048,0.9412223982795388,0.5925453600666476,0.39264776048727346,0.6352535061015416,0.001713877495963995,0.0228114114964043,0.6057112344117088
31,0.594544052485013,0.06372309282343906,0.9264572383932487,0.9050449866840469,0.6106103098016914,0.41315719847653853,0.6188389670876622,0.004751784371394524,0.0954363559920139,0.6494828988573191
32,0.6251627593351858,0.06972786604840052,0.8724873671151311,0.8663653078433579,0.6577932509502648,0.3957465398436897,0.5888764064282317,0.008731199524685122,0.19365815560987795,0.6138971335133022
33,0.6227524742927876,0.11585656634619494,0.8633617635318859,0.8250297601190186,0.7843724143553865,0.5335576153110198,0.5571175879145831,0.015682282816825283,0.6195450261501017,0.7750021914888278
34,0.6457556721441082,0.12778434978600675,0.8291303621804201,0.7909581375456358,0.8003893285769704,0.3055427560300294,0.5321598897119811,0.02398945524689239,0.027399420268567374,0.43438992546890687
35,0.6711685981458314,0.14357497196698876,0.7932368945459385,0.7644026830604225,0.8033222738487447,0.29886613039230725,0.5116785696231689,0.03334150594526894,0.06183227239330229,0.4384489296272311
36,0.6962950469503361,0.158534729075616,0.7597448261272721,0.7439076291504002,0.8097420660103959,0.26502207912461095,0.49236598735927867,0.04352355878193736,0.017041389058486074,0.33002509241669586
37,0.721630133883494,0.16888058999136651,0.7258429724008948,0.7295855380130608,0.8188627878208192,0.25923573989141324,0.47536666186482773,0.05432526416566039,0.006776222642490901,0.22078264481009877
38,0.747242898599003,0.17854276866392832,0.6931819371237364,0.7156673909290452,0.8320100179253694,0.30489854787137494,0.4615313153124668,0.06575669706684537,0.06382180102905764,0.219712607359791
39,0.7709694011150214,0.19127828992712304,0.6635126211560195,0.7085267846636185,0.8368421547224485,0.28290213129177955,0.45019311042572546,0.07774392456511373,0.05561437591574988,0.1977620215513652
40,0.7904471308846535,0.19480549032497435,0.6429775056661245,0.7085207057549693,0.8463991183995712,0.3606360916224498,0.4447922035884286,0.09025059947750497,0.0041855076214726665,0.1659594371540911
41,0.817128048193981,0.18874948779064138,0.6119971632768832,0.7093945282172789,0.8591836988986401,0.4015823586098657,0.4417392861673198,0.1032727128626425,0.29275979085401427,0.2918899916625754
42,0.8279630830649244,0.2036424842073654,0.6076127470475332,0.7087850312770001,0.8534634962928674,0.30711748501972824,0.4362609657134133,0.11737575585337649,0.2216421472808993,0.1619406199332281
43,0.8359986117148277,0.21623833615990962,0.6051397070436578,0.7058574521692307,0.851533186023574,0.2347436316062384,0.4289928757688837,0.1323999643314899,0.12639998592051857,0.16855599621362422
44,0.8320307039721324,0.2323380936036233,0.6160491662496357,0.7033418088833086,0.8611938743099374,0.23797162923792703,0.41644781316670265,0.14843771732095815,0.10934359105315053,0.10147223163865401
45,0.8417662025618162,0.23897939715242109,0.6001348815896949,0.7053097190124827,0.8891969899689867,0.18551871987192473,0.3947129429672247,0.164876393028013,0.20573014059845193,0.10322837719441537
46,0.8770563607835117,0.2405223540343431,0.5427076258797356,0.7107397421977267,0.9246390465315307,0.3174708355769385,0.3587086171739845,0.18098944148747384,0.016044779991185216,0.2904779948320324
47,0.9190264322480851,0.24680343304198452,0.4714522652581859,0.7100359023028178,0.9633922778768356,0.3990354649897858,0.31367648930610503,0.19624631714036767,0.03519757415370764,0.3560372553693332
48,0.9583860749664538,0.2579730466244293,0.4067305445078266,0.6959526512629546,0.9828778128426163,0.4391252056985854,0.27054471082660436,0.21055647642042255,0.2859332519245705,0.431604179443499
49,0.9864674020415627,0.27532722258169795,0.3619908723635314,0.6710654797010666,0.9999988405889589,0.4507336936273413,0.22862756068672319,0.22418194817836998,0.17405489572282098,0.2693668737157458
50,0.9995547818169505,0.2985794147689927,0.341656351080207,0.6425269967500713,0.9995602303081281,0.5053139366529517,0.18778411683358937,0.23756142082770215,0.09008196128983029,0.27539110015484575
51,0.999999968910665,0.3274057332089011,0.3426922768755705,0.6196182458141057,0.9735439992833366,0.48152363282889477,0.15283178158252902,0.25092787768107344,0.004617634606488498,0.07274227608682018
52,0.9819364892966422,0.3646354482898012,0.37359524721370535,0.5936188957139794,0.939369595979232,0.44320355343671103,0.1276266292910946,0.2644700677122629,0.03383927484331897,0.13521912888735932
53,0.9610789834984402,0.39201236006459744,0.41004464736354124,0.5729025231878799,0.910603044859967,0.37709953911433597,0.11410035718610888,0.2783948688574338,0.08924959797101756,0.11175018359728311
54,0.9479878249131211,0.4216289167728852,0.43569204948949275,0.5520292945339691,0.8812757133863056,0.2908214858485752,0.10307156799381366,0.2929500482919895,0.11608816083169186,0.18422337983668097
55,0.9394573880596809,0.44115548892935463,0.4553717739699392,0.5363378002527059,0.8586263830157488,0.1872662777519403,0.09209886525143354,0.3078586046575383,0.04659363666473051,0.14566871253914304
56,0.9318142580728997,0.45534105036554895,0.4720053321420168,0.5266885547072774,0.8509210140936653,0.15566783326781855,0.08441033540807592,0.3231010795032334,0.08459507286915596,0.16356638736978313
57,0.9262586945345654,0.4681758531989433,0.48527463890673705,0.5178871965509282,0.8342790117482153,0.12384810971472436,0.07720328424992122,0.3385537962840731,0.02084162852297084,0.13919593823808926
58,0.9187183799753259,0.48814438801426885,0.5016545886890781,0.5038787195064259,0.8212356205113853,0.1611457895316434,0.07036228909709097,0.3541178840203744,0.004177295414103845,0.15430702545713268
59,0.9008433646784928,0.5169506008520258,0.5337525273720741,0.47586420059745815,0.7994253281360674,0.26566225650055475,0.06949519371260975,0.3695457061261225,0.002029204784573018,0.13676139978853974
60,0.886053435661426,0.5520913748614426,0.5593297215257272,0.42079723692181714,0.7752423839084188,0.40265414001156125,0.07305141820753555,0.38472102190435287,0.004367388891172129,0.12323533457880985
61,0.8719085831860109,0.5905126868567389,0.582708976301659,0.336809059838704,0.7496415990588905,0.5666733330630389,0.07173666110345416,0.3996458558496586,0.1452598379375187,0.2970731420647853
62,0.8487081257382275,0.6277353530520393,0.6216987587961522,0.24204339900011662,0.7204997777246236,0.677310945641798,0.07498745119788362,0.41454618614527217,0.01992090356451713,0.2578894288031098
63,0.830569852757833,0.6569099308333871,0.6575979576936805,0.16440453883438363,0.6912816445597108,0.5873663591308065,0.08842804005649897,0.42963267217030343,0.13475965293451725,0.08709553418313883
64,0.8085914099126422,0.6657538309200715,0.6987570232506698,0.1312276777220794,0.670055045656161,0.38708469894601594,0.10671505696136795,0.4445444694176543,0.28629962245991847,0.29379411396459637
65,0.7908491945913239,0.6733314906407286,0.733524297696827,0.15121697028116088,0.6555745232338667,0.20308062178068692,0.12797084721130797,0.45937305884907337,0.1973067475588124,0.07301034814428366
66,0.7905381486691976,0.6686879338657709,0.738450318283922,0.202368155645427,0.6431230987002693,0.25327238725768103,0.14285027312793522,0.47389528567685546,0.12692227573102924,0.1257072051575802
67,0.8072087232964825,0.6662892656428121,0.7131023746520649,0.2555587566807014,0.6414122298550139,0.36232574060169603,0.1415430924052704,0.48822473625515744,0.019176078231028806,0.3160310953842226
68,0.8341852285467314,0.6720579116676512,0.671870235491254,0.2958936338186517,0.6428274039970576,0.4220050608461289,0.12519436619898716,0.5024947981345842,0.10076146532071792,0.5366153559723006
69,0.8691713561503946,0.6684118507592303,0.6122292794302026,0.31737998160736464,0.6843204571435609,0.37822654635976605,0.1087300739703473,0.5162804715472318,0.3468975275839339,0.32984851713236707
70,0.8841351281999082,0.6725742305126331,0.5887296681303299,0.3316196608156056,0.7044169704649506,0.21902477701549428,0.10066588994203367,0.529972023615879,0.13763917745521564,0.2924799110308626
71,0.8882019563002083,0.6732772401471953,0.582137282812927,0.34018194397751816,0.7056049813324785,0.17394192930518232,0.10283429683539355,0.5433178510370833,0.10996957498729117,0.14475893589552286
72,0.8836993129431241,0.6724446760532101,0.5893615398810288,0.33991130930060814,0.700831730799973,0.16762841552034413,0.11415941775859094,0.5563171075779335,0.002570603783340266,0.04002972217942848
73,0.8763423347661119,0.6665562606424836,0.6041625266944998,0.33092117190786663,0.6898056391312929,0.18191763213589587,0.12913046308584145,0.5688966856563554,0.0049838908490556074,0.09744321125429209
74,0.8736544978466108,0.654331225921729,0.6116217655474441,0.3181908765103271,0.687280549132321,0.2255275561397689,0.1465137417899003,0.5810971083404248,0.07254160381428919,0.16281846207934042
75,0.8746178493857554,0.643311160746877,0.6131778034641353,0.3046760393831503,0.6826413458385838,0.1898662650611127,0.16310271479334018,0.5930098673577456,0.06562217973151392,0.13941040398604435
76,0.879237484615315,0.6318321657217048,0.6058489508454633,0.2961775022744954,0.6913740470523809,0.18064015805574743,0.17696306958522748,0.6045320249117184,0.03523928205138746,0.15013368955522788
77,0.8815398658735475,0.6195242438616511,0.6025477433315962,0.2866446937524467,0.6956074405717769,0.16708936975459357,0.1885649378071399,0.6156138494985979,0.10931650577438141,0.1775767251371633
78,0.8851036053189875,0.6092851157022052,0.5973523533813868,0.2814983659174497,0.6992682157690588,0.1442094491852744,0.19781718249690525,0.6262231060745049,0.10276389479112472,0.13055565292451796
79,0.8895726557570071,0.6034567685335993,0.5897770564517864,0.2779864488987787,0.7084695348402804,0.13208407490195148,0.20592285709286376,0.6363365927659592,0.012820335290904837,0.09092485736740305
80,0.8926755161594708,0.5994990705319188,0.5839770182503418,0.27588027435494916,0.7064273105817651,0.12534978809990094,0.21296887966919162,0.6459300509505761,0.0027093130029153057,0.08007786897048531
81,0.9026860645131217,0.5919655845697975,0.5671213736352763,0.2748347851290683,0.7203031242460661,0.12834056985994055,0.21508656710591803,0.6550833842023854,0.03193048605587441,0.036737209699832706
82,0.9106454462852699,0.5892107679412908,0.5527244408664699,0.2726023801511161,0.7305195541321066,0.11403103655972655,0.2125169278125667,0.6638723375625548,0.050188728591045784,0.03687380870983135
83,0.9215165835139246,0.5847221702245659,0.5341307907330365,0.26898678533054066,0.7475902926712571,0.10354070928558029,0.20771939668831826,0.6724661529326085,0.008534380219958435,0.04592838453653629
84,0.9372347823567977,0.580098478151105,0.5081982582705998,0.26292874364631363,0.7684489836494486,0.12914375008646267,0.19901008601351627,0.6808437128098319,0.04225079696453565,0.0896261030417611
85,0.9515280022321874,0.5751785882263354,0.4855182175861423,0.2574651157471482,0.7796696488133638,0.1263868953494846,0.18914564283251367,0.6889149493710007,0.06188252667883875,0.0778484669684064
86,0.9599869279326945,0.5750710599852209,0.47489102308512643,0.253890188480666,0.7870402235789848,0.09235424745050066,0.18028685986282741,0.6968502730521742,0.017696867273722907,0.07254725728783927
87,0.9649824004925674,0.5696610417033686,0.4658470900002655,0.2516411906729207,0.7932493709618595,0.10858291384449399,0.17097567300057492,0.7046289694485615,0.03173983012418208,0.1339276994826559
88,0.9697599063956558,0.5637299559183063,0.4574049395351235,0.2533015246695007,0.7958601938766529,0.10547154396513073,0.162166812777329,0.7121943998075867,0.039858323114904386,0.13414258343245258
89,0.9775157049541752,0.562940913883616,0.44763027041203296,0.2577958679695372,0.8011736478974423,0.08512116269522724,0.15242933177668436,0.7196919045864426,0.05335531419046286,0.02645036620729134
90,0.9839463480318138,0.5567021599886547,0.43748593482254966,0.25841262656770614,0.8066443483547193,0.101579643672115,0.14182689077498203,0.7269375216242908,0.008193079316405665,0.11707433676399333
91,0.9897992739772421,0.5489678724798562,0.4256852642130899,0.25647802243555745,0.8068220392671054,0.18681201193791183,0.13205711814885074,0.7337356898287754,0.10575627181046236,0.1975784514757334
92,0.9869601018396627,0.5496222669936996,0.42918133467048114,0.25103763651370253,0.8034020216427328,0.23290144526776743,0.12219336756288932,0.7400599802298873,0.0004242860349519719,0.0588685011611122
93,0.987312259091793,0.5403078920498345,0.4265635802747243,0.24730803302857074,0.7948643849181182,0.2725156236859354,0.11337073454402241,0.7458512722966488,0.0021523641379896648,0.19527931825190925
94,0.9803849533408547,0.5341062013385628,0.433491244480255,0.2375780625130325,0.7809829826090031,0.2984621973886371,0.10966864561381974,0.7512590784173357,0.0,0.28760586624330386
95,0.9657666780199717,0.5438000443350334,0.45424701359737635,0.22942863341825695,0.7690461563968916,0.2751759777142743,0.10981652717859551,0.7563376402544435,0.07496897423348245,0.047208623335306746
96,0.9606366329653055,0.5691158538924163,0.46086518959848133,0.21842890470523327,0.7582163311587181,0.38075410642921237,0.10667744630612074,0.7613482541948192,0.15166869247647435,0.43181695810864373
97,0.935292442757104,0.591759929027593,0.4949045936379391,0.2035774016029876,0.7319949204023372,0.31999334368119153,0.10272437203961951,0.7658933646939627,0.014744583391484607,0.34128108281897773
98,0.9100021274988689,0.6253913702324768,0.531876971540626,0.18537258140826998,0.7012707411418132,0.33731671121592866,0.10190217051662996,0.7702573947765742,0.0059566559038531485,0.2529967203252695
99,0.8937772466633737,0.6635921411748698,0.5593970638665023,0.16772781691688626,0.6810967941115253,0.3720517973792403,0.10468331632029196,0.7746076641874451,0.4168520938976476,0.3777369485925949
100,0.8832974203643535,0.6785515948340469,0.5741779912593107,0.15128276714264882,0.6538169777020625,0.22119657375561122,0.10669168219732188,0.7788012930525351,0.02703903880296198,0.13414455989007118
