Frame,Center of Mass distance,Symmetry,Grounding,Arm fold,Leg fold,Kinetic Energy,Potential energy,Bone length coherence,Torque,Center velocity
1,0.5501793838024317,0.24598570026322264,0.9999991409012626,0.9900114336060963,0.94217449002845,0.1377862854344877,0.5553623082797766,0.0,0.13111744830966704,0.06125991088830228
2,0.5423056714522424,0.26422644834974746,0.9871223773813331,0.9876320711047976,0.9349162773999061,0.1377862854344877,0.5553623082797766,0.008732697693120305,0.13111744830966704,0.06125991088830228
3,0.5369661680630945,0.27265167321556527,0.9776381875860828,0.9876864706403692,0.929601108617883,0.07094057207255904,0.5555183446154245,0.013768059522022695,0.04515772593040964,0.07114681964525126
4,0.529852643168192,0.27618585476751023,0.9646132336006051,0.9888998893046037,0.9192197625984995,0.09929361648161802,0.558590856402916,0.016991215628035083,0.14638128859693741,0.08723447347267799
5,0.5241046079115517,0.28005817158029506,0.9547714108151576,0.9897991506190237,0.9104304882436078,0.06016418056384183,0.5632142691758825,0.01903052025487522,0.05556538424786367,0.057661069503606534
6,0.5175958367193745,0.2848581254967918,0.943534621780657,0.9907736570983148,0.9070816117178855,0.07952645783209497,0.568489132350887,0.019534459246071164,0.10563525181096728,0.058100942438521645
7,0.5132927744669129,0.2855430695525971,0.9356647201234706,0.9915978934040871,0.9044867082534845,0.06886663260162044,0.5737246559733696,0.019703348413209424,0.15031928678702014,0.04785724888564259
8,0.5091501850326342,0.29178639098845166,0.9295770557986386,0.9919368248188009,0.8973508768664014,0.029987468176661366,0.577725547156322,0.019732104200386385,0.12026535853981477,0.022449382306424945
9,0.5104334478240357,0.29119172950149447,0.9311676334622212,0.9922483022974833,0.8956825018715747,0.0018326582798461036,0.5792432741770546,0.019353251950443504,0.08990706614070545,0.0
10,0.5097167519894502,0.29311177796861587,0.9291996640797084,0.9927533151269239,0.8888527744759336,0.009480523094482362,0.5792302050240382,0.01852591022682838,0.07428732394723991,0.01318962928126794
11,0.5106344569860132,0.29588216526825617,0.9314343763002135,0.9928213505099016,0.8904521856346586,0.013148894423966865,0.578815704289986,0.017703895267768086,0.1081434489675469,0.00878048106803456
12,0.5120812789682571,0.2974844130952338,0.9335485602754002,0.9925491933649792,0.8930012287167771,0.0,0.5776952064507542,0.01689497748112483,0.05688373080998407,0.01401073410413082
13,0.5138230718597337,0.3024593464492508,0.9359611010545668,0.9922611176245195,0.8900458733089589,0.03485933594417574,0.5758453449130438,0.016740831667914437,0.032135636616249616,0.07120995107469069
14,0.5198548352966965,0.2912134291132043,0.945660660993089,0.9924763071275349,0.8930832910549934,0.07404493358265803,0.573130331128364,0.01677069323920279,0.12945888915219936,0.08759746100911787
15,0.5256831566000786,0.2841413655394637,0.955316751728378,0.9926731533759774,0.9055490219432971,0.04515586002995497,0.5691728179448491,0.017275685001674684,0.1058362528876813,0.024604967016417414
16,0.5234371985984074,0.28299165170029766,0.9514440408953183,0.9929141252409172,0.9105125591844616,0.036163877279315325,0.5676378446329147,0.018134233750432705,0.057161868702729636,0.033375438939079204
17,0.5241046282701082,0.2746564762020832,0.9523529424173683,0.9927776560736713,0.9146368719108668,0.05554184058003486,0.5694535796517737,0.019337657430364225,0.12568679465445703,0.048284892164418766
18,0.5258776495529278,0.2704733064134285,0.9541173968938546,0.9926029685712119,0.9202965993500775,0.034471132509378395,0.5693736726631893,0.02083808952602799,0.11935751994330747,0.0213112322664368
19,0.5262247865690566,0.27098778673106727,0.9549946844499169,0.9923158546628814,0.9220889090916858,0.01194927553966041,0.5677318090790268,0.022527800075852027,0.10370514892583511,0.01500444179664897
20,0.5270759973769322,0.27119829572558574,0.9559233447006996,0.9918433948498868,0.9253591273643834,0.007174038409123977,0.5660634780458544,0.0243876992790756,0.06749246805986794,0.01656451502027947
21,0.5252596043090175,0.27732353276309435,0.9525248433574072,0.9909270328226228,0.9228712272549027,0.017315045883872237,0.565449013036862,0.026365955461448844,0.07211958756418102,0.01993384229653732
22,0.5221927170262167,0.2851409934523271,0.9475377402233967,0.9902125429554377,0.9192458639529247,0.02737855679988952,0.5664712964556915,0.028454869012743026,0.053850717105164814,0.022385334283440497
23,0.5183021329255942,0.29435593699671136,0.941912430151096,0.9871543561652587,0.9144907237677634,0.055730814384794485,0.5699931872397068,0.030555452118914937,0.014067688325898066,0.0016972882827094784
24,0.5122065648827572,0.30181289203624495,0.9340741424598878,0.9786844880561387,0.8982770293537465,0.197969114522802,0.5828333257904413,0.032797216879438734,0.07285735840769872,0.12156352995223982
25,0.5223304019006118,0.27755807860167137,0.9523608459088653,0.9543445623600579,0.8914064642322128,0.4155718958649896,0.6028758316448077,0.03564324165554609,0.053402209092489855,0.4435995609789239
26,0.5488860403279685,0.24498120981879534,0.9963457519572138,0.9160373975027292,0.8958575643753607,0.5233924839085589,0.608398326365162,0.038744900197487574,0.021179753645323603,0.3539203755233794
27,0.591891610090789,0.17557603861290422,0.9336967507409578,0.8780928271995004,0.9432448756480493,0.6279591813186453,0.5918480063438286,0.04131976844387123,0.11213218990818179,0.381800659483361
28,0.6589125878775791,0.08367608509575615,0.8298705588303086,0.8389991476758542,0.9344233126840213,0.886671537667731,0.5328284921081636,0.04509587663224101,0.86288437846149,0.3771257900652824
29,0.6860923879520722,0.0369057760233923,0.7855378991561244,0.8043161471167187,0.9687209370089472,0.4775261337648797,0.47866151432391824,0.04643415174081339,0.41065659219597705,0.21993589014533302
30,0.6909625648519523,0.010519087110141405,0.7767590959768975,0.7787617606453321,0.985914702160915,0.39807656557729315,0.46867986533203243,0.04608067538101515,0.21677881620128003,0.2544736191368107
31,0.6886845670164644,0.0,0.7811850512146842,0.7563091219187196,0.9430267140409757,0.33570953849686774,0.4662246179399839,0.044810244764418444,0.05250853536865977,0.1965885137724274
32,0.6798886772422872,0.014442847584326696,0.7985687807602248,0.7348466529028471,0.86462589702516,0.34358673405558626,0.4695506362998851,0.044173874968292656,0.007501648455137254,0.2234842157645765
33,0.6587336510245283,0.04893717442754181,0.8377700985805988,0.7200290667744843,0.8039055314210668,0.4386778158328311,0.4766323445219447,0.045026200256384694,0.05776505745208235,0.14620858801877257
34,0.6180277835597705,0.10467851043844509,0.9077219259392041,0.7147980963378012,0.7403178956718183,0.5399273264921374,0.49213452083394016,0.04753649453012973,0.293021745990774,0.4622026909415376
35,0.6055137195518877,0.10552251474372557,0.9336572332834733,0.7083164208104211,0.7036216301054937,0.40870022421811264,0.5082876115866518,0.051746982667112744,0.10089342138923044,0.24968175589638716
36,0.6026289728280124,0.09344036142748562,0.9484229312709559,0.7006986451717263,0.6422339656113705,0.37463013084525554,0.5131642896622294,0.05742357051079389,0.010725983551855629,0.2120693375216103
37,0.6255427858968957,0.06991536544264239,0.9204030780446136,0.6913015486981373,0.6008576705948537,0.45538042073984314,0.5068624139677144,0.0643645757344997,0.40341199433209374,0.4345759786871544
38,0.6323277100513585,0.08057802341620562,0.9123336132271492,0.6757784189292381,0.5621943477310988,0.318816640135881,0.49737922948995344,0.07241689163212052,0.006465489451541632,0.1967800585781122
39,0.6454973348885079,0.09286088622771795,0.8925037530635802,0.6555730596057362,0.5525685729563626,0.41466701106965914,0.4913020050426494,0.08136513206705862,0.19757373081773402,0.40666856267791107
40,0.6498333944316048,0.1266680772270621,0.8840154031968269,0.624453361944803,0.5821443501580833,0.4273955851760971,0.48611240691989294,0.09115775834682624,0.018936776896792264,0.2943714203383487
41,0.6669294209510183,0.1457873887967464,0.8557050966580015,0.5833880581461613,0.6330769058165846,0.5307004637699697,0.4771640290721797,0.102111244390451,0.10722150755703733,0.2818632342406396
42,0.6711570958093789,0.1851810790390387,0.8489594666661275,0.5278349119079445,0.656338265910255,0.6638559095658938,0.4678936777779367,0.1143211111109884,0.01105792898496364,0.3128394324718334
43,0.6630292062728242,0.23822283339133726,0.863039536766329,0.462695037904272,0.6386835722235733,0.7723007032653437,0.4659527759256772,0.12741036298739392,0.007850031617702176,0.32080236609276314
44,0.6404832295893957,0.2997583477355789,0.8997433512739542,0.375101009698206,0.5956933795976226,0.9170040655858015,0.4713379123209932,0.14099571440149494,0.003796021974784131,0.259533621841482
45,0.6030007180736819,0.3821142189781274,0.9573084315853816,0.28690634948833116,0.5379357274662233,0.9999999710930059,0.4843050018149732,0.15472081689089356,0.1470212125013161,0.4259455940072442
46,0.5689718008014529,0.45656392985750915,0.9855080892432692,0.20447247779992364,0.48777730071636183,0.9099614765551193,0.49901023284313106,0.16917452624605872,0.17931003438526963,0.3453703162569927
47,0.5409378953682071,0.5218354194239527,0.9389486208400768,0.14121554604828981,0.4289393602526689,0.7829161535542865,0.5122916182245335,0.18427542868516045,0.15484826659520962,0.27606361072361474
48,0.5166991805529975,0.5899174550671129,0.89723399272396,0.09312696293651414,0.38988941109641134,0.6793163347862752,0.5233118570256549,0.2003745207238491,0.3224917199503588,0.28970003749827294
49,0.5035350813593052,0.6282349195365297,0.872330091019924,0.06366537905280788,0.3742850994899981,0.44009556948228373,0.5280454757350379,0.21696530065769523,0.20705350160745498,0.20455383612420375
50,0.5034573941253027,0.6591204141628957,0.8688031579398161,0.04235512195782503,0.3697411400591098,0.39069397437968706,0.5252345868256404,0.23402720331410637,0.014705160539939217,0.299086435843435
51,0.5143907932603924,0.6712108285051323,0.8863034639849267,0.02704060373694489,0.38968201905601524,0.3905271236821337,0.5167542030721933,0.2513634600885727,0.15421846980598647,0.3091349940644426
52,0.5278578519456097,0.6606749611068871,0.9084549747754668,0.021413655542743062,0.41650995259466606,0.24601759002537626,0.5050267090125596,0.2686000691630325,0.1348661819016378,0.2118693267668634
53,0.5378043539952088,0.6506486183697113,0.923762061930431,0.02193740485000079,0.4239593204006254,0.19764347275098976,0.4943745157037114,0.2858238826186825,0.022232092711904836,0.22160992422878908
54,0.5477929093466644,0.6438881125821804,0.9406360162744777,0.02771116692219448,0.4360230770116836,0.23395621141106945,0.48647300955403316,0.30300333056278184,0.08043745548143988,0.25291328304266225
55,0.5523109562773472,0.6432069724262504,0.948778588388279,0.03510387466683982,0.44000415688154026,0.21982755392014383,0.48157071413721436,0.320173469233796,0.015535341165109136,0.21126744450186832
56,0.563859385740001,0.6403245841250977,0.9696023126074803,0.04341135125283468,0.4581452888380746,0.2917453291840588,0.47797392089498336,0.33741560420665734,0.05888487536479247,0.3121363336618947
57,0.574951540272879,0.6436643822685494,0.9864782428244108,0.055842037123950666,0.46147509289884453,0.3190359310405948,0.4730960380708386,0.35486043391728267,0.1846935868105033,0.3855972706433962
58,0.5843390238884993,0.6408091204344112,0.9991672984213076,0.06983652891535401,0.45906715308582635,0.2551693047338555,0.46840629215669827,0.37236140584258487,0.21085533703040046,0.2901564413922787
59,0.5890633079838287,0.6470320178989821,0.9938956695934463,0.08593932509019034,0.4636833963432565,0.20925054631835713,0.4665163410796119,0.39006272415868715,0.10346475284520794,0.25710219176679244
60,0.592101256234614,0.652817212593621,0.990633503478447,0.10207101574086809,0.4655692871406222,0.18677588869508074,0.46878334650456155,0.40769347359248714,0.07753454839221231,0.21200665709618596
61,0.5910419031953744,0.6578521683803292,0.9956719793071779,0.11623841600327374,0.46047516583231957,0.13177330873375992,0.47425198777497796,0.42522788114708104,0.06054663207557964,0.12838057936155667
62,0.585160581695091,0.6722994530766682,0.9932614144008856,0.1272346402977439,0.4623642075457511,0.117191491579036,0.4803907902274625,0.4426476280658556,0.06955936543891024,0.07761742089995481
63,0.5752344476832453,0.6852934668961977,0.9750873357057297,0.13779994034878892,0.4437076499904945,0.12747194074813817,0.48852331931789145,0.4596883305839811,0.04977931357637926,0.01897358406717978
64,0.5600522130845349,0.7004694721467926,0.9493496156488644,0.14715697726655835,0.4166103531629942,0.1698747934817809,0.49992048880245793,0.4762703779953136,0.014628599906912336,0.15362918543770163
65,0.5383323109644084,0.7298530426398966,0.9136297858325004,0.15867851917160375,0.3893603914899822,0.3058398249135772,0.5102264213710913,0.49244323045959465,0.03178454199854288,0.3304506066362056
66,0.5133865417964998,0.7642263239483867,0.8719566510467424,0.17310641974311458,0.35197278931718134,0.3502699745594549,0.5206831119585534,0.5080868005943595,0.13922857844650074,0.3519370289061852
67,0.4938133738419526,0.8002220115054295,0.839008970872607,0.19030826179028817,0.3290320976687647,0.31639614325148707,0.5310852166151626,0.5232331623117361,0.01709478181951304,0.3405731417355823
68,0.46953067190041586,0.8386696457775473,0.7971007072148347,0.21092491227934543,0.30742593724697764,0.37140911551584277,0.5431185697920382,0.5379274696534025,0.15130140142863863,0.34747708453567705
69,0.45192929961824335,0.8761112629664356,0.7664489913203054,0.23425248551350344,0.2887418769800223,0.32842883091147407,0.5551046080442336,0.5521438076512909,0.13199269434461972,0.3010394026147959
70,0.4413365354348272,0.9037459725096796,0.7463859781575964,0.2568328366452423,0.2816383805922708,0.3151601713831072,0.55924244181508,0.565915556273042,0.24372669016523105,0.3111667416674459
71,0.4362535771408788,0.9182517703742759,0.7357063852735711,0.2827436199326233,0.27088292083217413,0.2555635494451723,0.5602309338164477,0.5790265369979796,0.031225175628319043,0.10932190834071068
72,0.4426578296882798,0.9058811787170166,0.7400928230538731,0.31245374623178107,0.27130261176311316,0.3676657170094091,0.5574700936367631,0.5915563416420413,0.007795155413304577,0.0974131796962049
73,0.42761377704211906,0.9151871067143981,0.7109763603824482,0.3466326082822025,0.27454505219127,0.48347137342184515,0.5565513124219807,0.6036857155257023,0.04364897511759403,0.37969926505390555
74,0.4152136312771397,0.8877512587559798,0.6887398870583352,0.386484183481089,0.2961892362466142,0.5880445891077667,0.5647655040718336,0.6149871296474859,0.17977894529181038,0.4348841143379017
75,0.42011602740667287,0.8377350367194425,0.6937368695567073,0.4269608462765607,0.3188948345932053,0.5682619886529892,0.5687414578003741,0.6255323784805491,0.03318993906666283,0.25318248856447045
76,0.4199325967495527,0.7851368022051082,0.6878942134682606,0.4683029742984143,0.32554659462721597,0.6100503375761012,0.5703552943799827,0.6352607737049594,0.007075533668861825,0.24855629203269916
77,0.41585863829254655,0.7370902238056661,0.676878722195645,0.49913695273581193,0.3504272987908419,0.6782231620962151,0.5757739893300801,0.6441187986419677,0.2573316499659813,0.43482839244007493
78,0.4146691056069712,0.6876098454299877,0.6738635401899052,0.5332341126008611,0.38538845455923343,0.5832871265177041,0.5783408860463889,0.6523021914653053,0.23167628858076403,0.34734936779681397
79,0.4124675388852278,0.6488419228815707,0.6679023317290144,0.5645649074167478,0.38609993439518575,0.5018449862527927,0.5804617790295867,0.65978900933899,0.046234288059366406,0.22050642866234557
80,0.4014050955463019,0.6238381019284792,0.6479361363371331,0.5900017755424004,0.3924618490872438,0.4698936876797936,0.5871886505537712,0.6666304411179198,0.029760843176023705,0.2970595023527697
81,0.38709954890223597,0.6012486582484944,0.6217459413921266,0.6102045382481739,0.3978388592421942,0.4564488357893754,0.6012207356285414,0.6729043945297142,0.2533237062838551,0.318125029497436
82,0.3749858529254636,0.585974889770242,0.6004302248272899,0.6261707394626327,0.3884249390255281,0.3491295049641967,0.6187971144843751,0.6786854675607557,0.2885363514782867,0.28265711087954765
83,0.3671841748517066,0.5855649912482747,0.5856388404924517,0.6383354990669061,0.38022726903032517,0.21417518421352463,0.6311652950050172,0.6842402478442307,0.06626070810668226,0.09744340070254774
84,0.35954663808734844,0.5872515348412081,0.5714323145283091,0.6477481159146566,0.37824338183163175,0.21384481574403022,0.6385609719263586,0.6895406703076138,0.1302448034253758,0.11243624959334454
85,0.35391367088786213,0.5836791214191469,0.56238676851109,0.6548674947161849,0.3865164858215143,0.1973158717371381,0.6446997458834367,0.6944860202382678,0.18369108444797846,0.1197452639171215
86,0.3521238342573364,0.5863165016928874,0.5602192359682993,0.6613126714833446,0.38867354532127923,0.12891968485164396,0.6474176083773672,0.6992268461741742,0.07963462782492589,0.01127779656505037
87,0.3553268053605218,0.5898357391471217,0.5657971250916278,0.6660917446965806,0.4001990413542496,0.12902683622629055,0.6434209269871931,0.7037817799037529,0.0074968888680313536,0.053318283881428806
88,0.3542742815190852,0.6137800849235069,0.5638311315819894,0.672349263976586,0.397066058041194,0.2183029671619151,0.6375791623405369,0.7081275340529832,0.0671936105092148,0.17838500548987962
89,0.34419403492974227,0.6373685157767818,0.5476823225826989,0.6799144906860164,0.38604716644246906,0.2187490015357645,0.6379454045166851,0.7122209182553207,0.11585385602889328,0.11194131120104304
90,0.3408361119379511,0.6549930033274944,0.5425490048560241,0.687986624618913,0.375837621103672,0.21018637386981487,0.63742276442934,0.7160739243257455,0.06543127925763709,0.11292085762165528
91,0.3362195770046885,0.6676661951541693,0.5375046014086705,0.6944893726662281,0.3738523062935038,0.20711920586485671,0.6337503998548214,0.7197433495498331,0.07128440232494314,0.08141039869698356
92,0.32882940743031475,0.6774431557965512,0.527745765283931,0.7002155568205278,0.3753723715498797,0.22791386303974043,0.6341536536709299,0.722995233148079,0.1421747173486275,0.1359965228301848
93,0.3278679317123536,0.6768360689486971,0.5299073702080992,0.7056345002323084,0.38584803920480953,0.19210553797956773,0.6340154401344064,0.7258742532587195,0.10815254147790322,0.08746923084064377
94,0.3265593253882449,0.6753328537660808,0.5299409600469611,0.708685433531206,0.38668237068847616,0.18081858719520935,0.6307707456620679,0.7283529562190603,0.04922125243280069,0.0783195926651419
95,0.33737377271768465,0.659971308054903,0.5506856493511932,0.7114573698805345,0.4036816071958003,0.199948380916424,0.6247452139404567,0.7304147956919091,0.07757148640925923,0.11261236806172722
96,0.34100688954497954,0.6515577966283638,0.5626673424592019,0.7113781630493744,0.42429899665521564,0.18092380008734227,0.6180108459580129,0.7321177758731744,0.12400449259097039,0.09041304164829023
97,0.3511293455154772,0.638981746629939,0.5824912750041483,0.7086757418270392,0.4578312612857567,0.14892889526054245,0.6099234959503296,0.7335537797793052,0.012872806672567254,0.07112233517036907
98,0.37414950359795013,0.614726453485709,0.6255396173102267,0.7060318032179892,0.49766568403878025,0.307491608208837,0.5947947173223138,0.7347998222983182,0.17306597863708903,0.26399738670207074
99,0.39095797064580806,0.5971412002485821,0.6588607374575437,0.7041877953594293,0.526484259587697,0.24780120970011962,0.5785994324183127,0.7358289238963174,0.04369784254361241,0.1962814096425269
100,0.4063102579678538,0.5880747704059467,0.6867877246588068,0.702224479529684,0.5423832628648565,0.272450903256463,0.5651021303269862,0.7365662706297539,0.1273352933718542,0.21537735026090316
