Frame,Center of Mass distance,Symmetry,Grounding,Arm fold,Leg fold,Kinetic Energy,Potential energy,Bone length coherence,Torque,Center velocity
1,0.23956134551154767,0.354039192168568,0.9999998307805571,0.2628577118218102,0.38526937363026875,0.0,0.7774613971384989,0.0,0.00645097248716899,0.01156754010982375
2,0.2390150177918936,0.3540837886846035,0.9990127229655159,0.263195660663572,0.38542323341288,0.0,0.7774613971384989,0.005051908995940009,0.00645097248716899,0.01156754010982375
3,0.2368350510180489,0.355047845161751,0.9953126230156175,0.265170200339436,0.3818083729056566,0.013037123144229086,0.7783053178258339,0.0048187359354905125,0.018128423975388993,0.04189117130263259
4,0.23428236252636434,0.35646193952020633,0.9911173233689565,0.2655874217935384,0.3795224808671133,0.012935716498623257,0.7800072878632998,0.007553553274627006,0.024549196015321302,0.03599886534409621
5,0.23235401803087777,0.3573460999741791,0.9877738110884428,0.26515062796180183,0.37736621945569904,0.008879772307013546,0.7814240543575561,0.011614896066631313,0.012575778669910736,0.019882423974680718
6,0.23020432123867812,0.35720258881976436,0.9838433006444822,0.2656532795543964,0.3754247611204807,0.012779852414139373,0.7826666513125038,0.01633152803518361,0.029728446142508583,0.03592897817928311
7,0.22917080769033776,0.359075453531831,0.9821258281363557,0.26593152028246103,0.3734969109284083,0.007446225196308887,0.7829494037965727,0.021032443154336534,0.010154874753438804,0.031188866149963926
8,0.22654206610563427,0.360073484216025,0.9777070668835476,0.26599849878959353,0.36949323654522637,0.013051846325527913,0.7837894028427663,0.026008366302339662,0.01434403278433282,0.0280582215043039
9,0.22338632347632806,0.3621789090345924,0.9722046448467576,0.2658627449516577,0.3644052564322486,0.015708427274440353,0.7864589728340222,0.03180503224721543,0.0203132568338218,0.021112257318840623
10,0.22073534890357102,0.36367037189103174,0.9676450771809109,0.2654576992959472,0.3630907957104216,0.014713580926534617,0.7891551466156382,0.03771919958302958,0.035843050083056174,0.03160833135683454
11,0.21903752806259966,0.36640290468561637,0.9646369401750874,0.26416568795831324,0.3608214483956107,0.009580405366361686,0.7907409134013424,0.043326858179689405,0.013450486741932253,0.030613399426413307
12,0.21735546670042444,0.3673451452803969,0.9617783871249351,0.26338040266697205,0.36174114853522615,0.01167451309463404,0.7916195429313769,0.048846142258759266,0.020595338645957795,0.02822133792157195
13,0.21561049739989724,0.3687689003250604,0.9588408361911035,0.2617254774984182,0.3606329234085649,0.01021428858739405,0.7928621025486017,0.05388435951329237,0.028497623109584466,0.02264018299475
14,0.2150300993217864,0.3671414074300978,0.9576913438373902,0.26330233945845904,0.3587387904457692,0.006631826313687241,0.7944689054815044,0.057738649052928886,0.013848392356246814,0.019156954238296196
15,0.21365938815823002,0.3687190067397967,0.9551663374072128,0.2621287922535239,0.3561061519210873,0.006886176964136196,0.7957039389544889,0.06149789790990444,0.019940762674865692,0.025738850069560438
16,0.21314101774472968,0.3692548663291323,0.9539279724343601,0.2608237761301596,0.3567186984929516,0.005888058972564626,0.7957916964929546,0.06495368602737432,0.01487162857754518,0.010868265079986433
17,0.21208645762732792,0.3696092443939503,0.9517456558977351,0.26111207054399954,0.35566696501651934,0.007568780474307672,0.7961791064501043,0.06816367455112937,0.03057964493487418,0.02042487028115987
18,0.21119298451391577,0.3696881480545436,0.9497560795680481,0.2620593217516098,0.3515345137945693,0.0020473315069002825,0.7978302651867236,0.0710076374546937,0.011468315099450666,0.0
19,0.21001829443402967,0.37178464805218076,0.9473985779097462,0.26044882924653745,0.3504045522842428,0.00897238623744293,0.7991439898104001,0.0740532050871881,0.032925833963257246,0.01086369755102061
20,0.2096327862835044,0.3723397227826543,0.9464388999154261,0.26176734098700205,0.349327269654877,0.0009096824419795338,0.8002510665987539,0.07694118640180883,0.010697213028306039,0.0029848418984292032
21,0.2088932630520115,0.37604879896464805,0.9448366326543327,0.2604223782436543,0.3502455088659459,0.008971711946952447,0.8008667093761377,0.08062307788783826,0.027153128696068098,0.01808466913755973
22,0.2087234262775393,0.378416859038151,0.9442851103923534,0.25972457202942467,0.3522157469137122,0.0019225676668403501,0.8007605811413641,0.0845175277168901,0.019508008123773023,0.011565553532943484
23,0.20875129470773685,0.379849900376334,0.9441611276026898,0.259608196610842,0.35280666669025645,0.0007503827941380845,0.8006947775745036,0.0887552283702471,0.018763269494729753,0.008266759755254136
24,0.2083231125833292,0.3811163492174222,0.943088073016054,0.26130922693962555,0.3482841386614109,0.0009214824763139997,0.8011099280749542,0.09309704482319767,0.009661836858601544,0.01491479248013317
25,0.207039484047418,0.38568087630870984,0.9405144243704652,0.2602761868984262,0.34625192225650075,0.0072936233219452395,0.8020849151023872,0.09775017559397316,0.012459565843221854,0.022704403420941245
26,0.20531174601557142,0.3884264553918305,0.9371456766548869,0.2606986500657481,0.34554003546853984,0.009007322782208971,0.8031850614846066,0.10251245630465856,0.007284676263496519,0.02805679275941732
27,0.20326244305128907,0.3901367712347667,0.9329617146674564,0.26103695327505944,0.34477541486735636,0.016714838275019173,0.8050849119196068,0.10752563106362024,0.03389489313555156,0.01294272626720374
28,0.20149384087049788,0.3936693525410728,0.9292393051300384,0.2612064217786142,0.34302295918369363,0.010680787126108891,0.8071769615837047,0.11296758154194293,0.012125031197231432,0.020801387927344848
29,0.1990902867088534,0.3980347348095491,0.9245802586477081,0.2610034016590616,0.3404005242861758,0.01509124089530314,0.8088071840546062,0.1186568153653465,0.022954827729292856,0.042496696747029584
30,0.1966875133189804,0.40306985511559407,0.9197745540572514,0.2610746757059228,0.33609809401537577,0.013193737901225033,0.8104530164088822,0.12450019899302507,0.024089735764781336,0.033018858865255026
31,0.1945990263215955,0.4070915792689515,0.9156278966260039,0.26088326588721933,0.33241820333384187,0.010038287235499864,0.8122525885368654,0.13054989305753684,0.0208644696082899,0.016057351909935236
32,0.19280436662398473,0.4100397476170294,0.9120729918604594,0.2612841999316763,0.3295467356963304,0.007834865159469892,0.8140584589039356,0.1365368867004439,0.018351477299584043,0.020517538146433235
33,0.19103133761830987,0.4142996179830958,0.9086687682434137,0.26133482701514255,0.3252832380020609,0.008653501000552526,0.8158612088975686,0.1427210793749016,0.013644521233351801,0.01151021293884393
34,0.18897080152438112,0.4186795247006842,0.9047287487949364,0.26154567988890987,0.32218774389779525,0.010477481541138681,0.818211096363512,0.1488841884561638,0.019722256228914426,0.015858404549801246
35,0.1878492207823569,0.426281245388093,0.9020940230818744,0.25821819466011,0.3173823116628053,0.014627972127710376,0.8207460633144538,0.1552876466721217,0.011778959035445432,0.02539195293273111
36,0.18483398925116154,0.433091751718244,0.8958915920202632,0.24825122042391162,0.3088311092863865,0.03563400377572149,0.8256656075545947,0.16205887397484184,0.006813672950680866,0.07599036840066292
37,0.18179903417953358,0.4463210189094239,0.8898771466633337,0.22909634143910826,0.30231797243961533,0.05445674297675759,0.8330062853782337,0.16981394701793892,0.01703696305422183,0.0847858398245215
38,0.17940633739465037,0.45408613168397693,0.8862483642473133,0.21684019874310412,0.31711885250470545,0.06506948800996931,0.8408075630018056,0.17828911384026241,0.2302654231787601,0.18981270071901873
39,0.19193367724892924,0.4516157263952715,0.9082741445559639,0.21568147636928725,0.31907786924871834,0.16273868851688986,0.8455849751134266,0.18692877212529393,0.08881304347881093,0.4749413954890042
40,0.209529814737032,0.448091345012609,0.9378621435721399,0.21479411559307404,0.3232986491760628,0.2065328246149692,0.844437888239563,0.19563217300513203,0.1476562512667884,0.5226294728203558
41,0.23771580654683097,0.4457979436394812,0.9848311399214096,0.2062424064929064,0.34343980137761193,0.27633450218620315,0.8376041436646039,0.20655102741655432,0.19090755868031703,0.725221552681193
42,0.25493194678466136,0.45316922732192333,0.9859583226876033,0.18818019832952412,0.36777553699523086,0.2072511072682718,0.8320877437939375,0.21949756982033738,0.11747495177305126,0.41825626303628055
43,0.2805037310519759,0.4683926938181969,0.9446299946715606,0.17036281715040125,0.38599567668474033,0.27545177334719306,0.8275906773941526,0.23437750237092814,0.027589336785511082,0.694525183944644
44,0.30974991976503674,0.4829165739794406,0.8979038436684148,0.14914849442700095,0.4077523473594439,0.2985668116849159,0.8167529464943709,0.2511344136124886,0.07070224211470294,0.7440151950781357
45,0.3428186790736455,0.4969941422541713,0.8442368508298265,0.1168134468729599,0.4249810574358805,0.34484981827515454,0.8005446949228034,0.2700418460211416,0.0049143115988100035,0.8577977702979165
46,0.3797825192163469,0.5182071328631974,0.7865435260402232,0.07421008079898309,0.44451042779623584,0.3721422877984004,0.7767628371207493,0.29138193807217916,0.025472011631321814,0.9253165586268944
47,0.4267480000971357,0.5348561976193741,0.7153298597513812,0.0340039289403582,0.49216757815382167,0.4147910090907116,0.7407808625271085,0.3161025604574774,0.05649522223900735,0.9999999768331466
48,0.4745889627800409,0.5469707372344712,0.6441801963775572,0.008774250001548922,0.5511392839945123,0.4138643392496932,0.6953076716405717,0.34399159276276026,0.01587534330178039,0.997334277610745
49,0.5242740889127827,0.5564537911252937,0.5726381037019382,0.0,0.6170627231925809,0.4256582275324958,0.6462307286005167,0.37424834196141604,0.02398397407516613,0.9830682423697787
50,0.5735253541428825,0.556908454576453,0.5038207065513517,0.01722526457039965,0.6851673281444054,0.4266069842067823,0.5964169765441321,0.40568809046394694,0.010610846438511774,0.9436451088381324
51,0.6238560542934514,0.5420542827603037,0.4366282519803232,0.06614163563025052,0.7407883750939588,0.4619637400356,0.5480603995478277,0.43652502593074854,0.05562493241850813,0.9246476473102058
52,0.6736659890753922,0.5122875463480754,0.3742389418831516,0.15677124801012518,0.7583855753841924,0.5220556012251042,0.5020641287070503,0.46432632936446394,0.025539569324268326,0.9131759162469948
53,0.7186901988378714,0.47427696450511886,0.320287776101886,0.3015589306292575,0.7536084498744636,0.5955303567351058,0.45954728922042215,0.4866717097207395,0.01489024312824317,0.872568749637544
54,0.7609494806532534,0.4460624315940235,0.2707934075914959,0.426100782231493,0.7594698653815497,0.6118545872625311,0.4192873593748021,0.5015416689010291,0.11668697002856869,0.6345303062236395
55,0.8105300948385484,0.4207384575232759,0.21231778431490794,0.4753578549408504,0.81678868142467,0.509637094845631,0.3778788512027954,0.5108169355909827,0.6776539970830114,0.4771782347462599
56,0.8330609938010796,0.40921072577976514,0.18615704996518342,0.4916689856922221,0.8702734535614763,0.23955456792332208,0.34887299467833827,0.5187504371300826,0.2709977489885484,0.2664800273800767
57,0.841680630202905,0.4079441455924472,0.17678080578059074,0.4991905538534118,0.8711334222161603,0.1423712085220724,0.3402177677870716,0.5253938404559639,0.001730282093229546,0.17259966612586516
58,0.8495076540528852,0.39929571550422444,0.1693820688045684,0.5180662322642308,0.8504786294553496,0.1870839823900501,0.340238206842329,0.5292774019809704,0.01355702285303222,0.2619084855518351
59,0.8561687511025944,0.37741973718843,0.16335482286463415,0.5668469621162967,0.8303573889776532,0.24601539486814591,0.3441532854299215,0.5297552664113218,0.0017353846783223948,0.2611649289667972
60,0.8710781290055561,0.3473245577312749,0.14637430091407821,0.6282625715811848,0.8532080751295974,0.2874002285089319,0.34386766905733174,0.5266681810664752,0.04575538011872346,0.126700959015996
61,0.8948575733956025,0.31469934587695,0.11826824367876479,0.6713777671750606,0.9008528943716554,0.26764944441407573,0.3340658968986093,0.5199788577910721,0.10639395581765929,0.19917536210364203
62,0.91203941608785,0.28458256328384013,0.09679032832266449,0.6956393101330621,0.9509968250792253,0.17840777360004864,0.32418268519335214,0.5113413398856346,0.15302939472975877,0.17856175121499998
63,0.9235824419222529,0.25134609451379314,0.08105073146156098,0.7091947172572247,0.9864816641587049,0.1049673212124353,0.3185869456754319,0.501429615506575,0.13028599676726102,0.12848791067030182
64,0.9265752100872827,0.20913852755648177,0.07503482318085905,0.7115890303525125,0.9999994894310039,0.1583514350531342,0.31532171244720386,0.4912683976720432,0.3635124395020888,0.13751666429057308
65,0.9125402414729982,0.1640632219463907,0.09049463587059883,0.7027676930674822,0.9805238150703832,0.28668755881699065,0.31697630455402354,0.48210260034244756,0.38458705637900537,0.17066227905473802
66,0.885636215886048,0.12883168262744243,0.1213458695637489,0.6845698957039814,0.9353737001805057,0.4183391470698721,0.31999131083768706,0.4754602257765036,0.29901979298174675,0.2810133497366102
67,0.8466324993759325,0.11887126267242133,0.16788257193844447,0.6481205139336419,0.8869575528483455,0.5273842663767463,0.31852481854819953,0.473013781999379,0.023347896535103562,0.3620203596443728
68,0.8083519978999587,0.1387525117511272,0.21632912129726148,0.599085070333233,0.7975455930131284,0.5308178266243446,0.3074548965958682,0.47549086163592325,0.19955827872292742,0.3961959484412181
69,0.7701815586592545,0.16715924686938252,0.2670574660091889,0.5616730392346194,0.7111644156807655,0.4681154837258397,0.2882664393356121,0.4821080193918571,0.49214673897330596,0.49993795217603676
70,0.7460025672970935,0.1694294086424436,0.2970879994663421,0.5434824802619782,0.6753501007572112,0.3023667611415384,0.2724066801288584,0.4913304800274504,0.6659596343772964,0.47268510333009667
71,0.7467950876673218,0.15288677512402854,0.2915991094744412,0.5327773793267346,0.6797262566740344,0.14048476681894626,0.26714987805599927,0.500074616551024,0.05761911857820928,0.28843450576088314
72,0.7596220499367863,0.14651998805010305,0.2705747004876072,0.5131516783948109,0.7256184168654672,0.20000515463910787,0.269800435964331,0.5072645160445904,0.05547109470992379,0.1618089965186829
73,0.7683122409033524,0.1679433866792918,0.25579514735176684,0.48889114636637215,0.7701441477261883,0.25176375130821066,0.27824817338851554,0.5134807581852542,0.004582868472292378,0.09169274392327446
74,0.7736520965466588,0.20635677210444334,0.24544898470645296,0.4642936795574442,0.798480518540562,0.2622643764198328,0.29265849205835764,0.5192096257283267,0.033933875937586816,0.0700089526567068
75,0.7781696805638295,0.25250709212807415,0.23687990871296627,0.44345591447977833,0.8018723722494419,0.2445180917095829,0.3075308188326713,0.5243058435888915,0.10127749715546068,0.0785297098559082
76,0.7772322936304108,0.3125478906913364,0.23570518092418846,0.4279827703100412,0.8047026048049764,0.22393418542955412,0.3187048013288113,0.5295684454061276,0.090705815053459,0.05237293281942042
77,0.7688584960752252,0.3791991361884208,0.24405847566132935,0.4012940304788584,0.8098716511420876,0.21963350359100647,0.3283975329144963,0.5359893723201531,0.007191372320000297,0.0979496718065721
78,0.7529718318548971,0.45321557835950854,0.26198441209943013,0.36196787767800653,0.8032426226317707,0.24866148244914874,0.3384900850223246,0.5442411042715809,0.08242311093431443,0.14054906984932666
79,0.7298430084348955,0.5444260384892702,0.290396220403056,0.3117899964733952,0.7804448584167099,0.2937537841324865,0.3475986561940479,0.5547915185648541,0.003894046209212534,0.3271521500866779
80,0.7113089300154135,0.6342182191750182,0.31407181299538595,0.2658437190796133,0.7648980086440926,0.2876013514731337,0.35174140622978356,0.5681929234872195,0.1565397213176197,0.5020002353590901
81,0.707638693087569,0.710676145429116,0.31684332208111443,0.24756817316509513,0.794589435892686,0.21240466423299478,0.3442208664330395,0.5844599886299507,0.01946455873806707,0.5119547967860232
82,0.7216133517057567,0.7635152008471107,0.2981222865730243,0.27069044682685334,0.8434732120502697,0.20275164209182547,0.3205943131030473,0.6032166599712846,0.2722488349021803,0.5925345471158753
83,0.7478183579224732,0.7912208512834923,0.2664112194329827,0.3439055800728992,0.8764796165521819,0.3320696063051499,0.2842867792299912,0.6227865876005914,0.2240736456426014,0.6560296241526616
84,0.7771946618908335,0.799293274439985,0.2325492886174112,0.45727129506311326,0.8947111680926247,0.46693643299410503,0.24240106424472485,0.6407380336787236,0.13517876680780505,0.6116049167729587
85,0.7999590243000241,0.7966720549756907,0.20739468009176154,0.5741141046369933,0.8986917387362092,0.4527775538138559,0.2033017229360778,0.655439886722215,0.3775625341896315,0.4634005389766963
86,0.8143470420762443,0.8149863973947841,0.19309313729836575,0.6365549803294992,0.8974928990870397,0.29625645186300475,0.17224694980690652,0.6680464022380188,0.2109364350399155,0.2885651012049524
87,0.8252693983159582,0.8350514396163533,0.1834747792295354,0.6555138115772365,0.9039927808594204,0.15999270155878553,0.1465291857809093,0.6815960666006416,0.10503752768845194,0.2972953385549573
88,0.8265021680134474,0.8615397300800103,0.18462646596890733,0.664261685897369,0.8898680778515154,0.10911174731840563,0.1286468012841701,0.6956172957950598,0.007244793472755054,0.15141185065739962
89,0.8320969684657695,0.8810535599613136,0.1774852035767272,0.680556165908932,0.8947637243988054,0.12128839877687701,0.11974955429358689,0.7090763105206191,0.1419092496714389,0.14393678839712254
90,0.8386524305609732,0.89575617647281,0.1704068469067338,0.6953911448196083,0.9061530302508597,0.0935893589869943,0.10916813615486005,0.7222128127084738,0.07460342560076519,0.15111963746033835
91,0.83570748563735,0.9149069495456765,0.17548538678063721,0.7021239069665556,0.8841222962378728,0.06827654711432977,0.09780417024334453,0.734707932940948,0.0363812138814157,0.14938888153091393
92,0.8373368357092531,0.9311054853112032,0.17467638993481574,0.6991724136349471,0.8793338322961959,0.06581760757216161,0.08985403441598527,0.7466730893941399,0.05651752754493306,0.014068992559109381
93,0.8483977843565593,0.9482966411179895,0.1617024504643549,0.6848555170943835,0.8930130416749198,0.11544343494056171,0.07860710563868889,0.7577573202169477,0.036690187503916685,0.14011552150710962
94,0.8630248457953718,0.9678804753766977,0.1441148151484893,0.6776625038630946,0.9070205927739595,0.15998199087989598,0.061647835605428886,0.7678227911648792,0.01622082483316916,0.2310628497613796
95,0.8774436250159909,0.9924481527676082,0.12843154085260053,0.6815274924576303,0.9072681741018405,0.2032361138148358,0.04021203057849507,0.7758460853838504,0.07514465973367097,0.15868190940953636
96,0.8834852752338441,0.9999999661392392,0.12329411829688258,0.7163178689562988,0.911759507109868,0.18954435649331272,0.01842612012954655,0.7823281957703998,0.04068446050133553,0.23963099542603908
97,0.884974651299525,0.9834054590639267,0.12423697266782573,0.7694397344826142,0.9161075232883135,0.22543560695342973,0.004079674455333495,0.7873720922655743,0.02734712201289224,0.2975850676831823
98,0.8760906953896448,0.9669678243032387,0.13762930833703035,0.8094387857613206,0.9187499054912819,0.19889795413299047,0.0,0.7917415440720107,0.045788477462173585,0.39731648090053534
99,0.8635705993407555,0.9373902407622359,0.15481390815375667,0.8298340881984534,0.9027204915980906,0.17589760895777878,0.0035194380431094103,0.7965350342260138,0.502383560760257,0.3010561333764008
100,0.8381161264620426,0.8986950263140306,0.18812139085980595,0.8214153961003989,0.8797066136440801,0.31902653904748784,0.015628138982493246,0.8030836436058233,0.1558738285771086,0.3059155531045827
