Frame,Center of Mass distance,Symmetry,Grounding,Arm fold,Leg fold,Kinetic Energy,Potential energy,Bone length coherence,Torque,Center velocity
1,0.01981453186587431,0.5596969069153076,0.8606269623425622,0.665929101779379,0.8659800873899665,0.050002602266250286,0.9863494618991585,0.8643503546262103,0.1117009399257659,0.0824826524381382
2,0.01380460093589087,0.5649771679852823,0.849483455734849,0.6676195932405461,0.8624772808747084,0.050002602266250286,0.9863494618991585,0.8686131023652448,0.1117009399257659,0.0824826524381382
3,0.009932211412527025,0.5693642630052921,0.8420949184172941,0.6672378724582954,0.8604409178511516,0.034214396376210696,0.9907097968613287,0.8756646996989984,0.07185088536783653,0.050554464806522606
4,0.007056415388031661,0.5718561177058187,0.8363382399341088,0.6676872083182902,0.8582478617001713,0.016936677006671078,0.9931449781551007,0.881412209842507,0.027827606905167723,0.034404699316069265
5,0.003751070751224666,0.5743849872870516,0.8300034938102024,0.668023204581883,0.8559688482363976,0.02168178409822514,0.9959242833904767,0.8868172455021385,0.07832836606722247,0.040418157947657754
6,0.001543434404428524,0.5772027115905871,0.8257957401592088,0.6682119026920668,0.8546006910126814,0.010278303549667092,0.9983434278276548,0.8924472195997417,0.05544069871874857,0.02327403528662468
7,0.0,0.5790508516118343,0.8229181067389113,0.6682207134493113,0.854429136300624,0.005182115782086194,0.9999998961856069,0.8982619362450944,0.054892512628055556,0.012957540135165764
8,0.0006998891604082268,0.5798344240867374,0.8238840231813148,0.668107472178576,0.8540692390084663,0.0,0.9998651565556479,0.9042614975102955,0.022824651108479217,0.018166009123234756
9,0.002435086385424501,0.5797620463646762,0.8267387174095202,0.6677404135963988,0.8543610096916509,0.007433941844183386,0.9977974173946984,0.9101354718133036,0.04280906909590953,0.02906530604552965
10,0.003854535236371845,0.5789317285501556,0.8293407276140643,0.6672407990440651,0.8549985088037633,0.007179846033535868,0.9961542590070027,0.9158701748688778,0.01789792626013427,0.03403765665740515
11,0.006137774263229029,0.5786645356455911,0.8333265004677348,0.6664969864027527,0.8553334889889921,0.0222272158743823,0.9945383639044905,0.9220670253654473,0.03009706753164606,0.05852616836127414
12,0.009166193111746398,0.5775529144281633,0.8383872391539087,0.6660124493725721,0.8553957093038784,0.025607882038453194,0.9915525851297556,0.9286740108070412,0.03551966958211001,0.061637805890196025
13,0.012360056808083424,0.5751331180722352,0.843662194603158,0.6657002460363644,0.854900765329043,0.028533864295077344,0.9883875299711407,0.934965932524584,0.09955059925285244,0.0714873951655465
14,0.013779362251447347,0.57380912779232,0.8463178472261325,0.665477353746407,0.8550955216884186,0.007357646950364835,0.9864823632980575,0.9408906560111451,0.024303469537300743,0.026275236589329447
15,0.016095366139650347,0.5720416840072904,0.8504846632420087,0.6651955607018142,0.8557537590690067,0.014875398298125602,0.9848639304981249,0.9463711049698083,0.048232668957689746,0.04230512874170372
16,0.018230211601569932,0.5701493032919669,0.8543829142550815,0.6650069715558825,0.856938769759885,0.012570014975305835,0.9830428008827405,0.9511026441806273,0.05680762058085051,0.040997761411424034
17,0.019923319282955567,0.5685747111259465,0.8574673533148558,0.6647286748908529,0.8578095970620342,0.005019307811286908,0.9813851364928216,0.9553782735798696,0.017686242508590598,0.01462144174624287
18,0.022622729694847573,0.5672575931366348,0.8625065644515277,0.6641086923624869,0.8579171324271099,0.02048256745563958,0.9789535451527906,0.9591572565626766,0.043811578817875715,0.04111411525027291
19,0.02536316786562733,0.5645652769773056,0.8674571950156588,0.664299877437242,0.8578474846550751,0.021895762953592194,0.9764489780936758,0.9620812067780325,0.03044584359461363,0.03763736143031001
20,0.028341421932837257,0.562809112852704,0.8728037913263653,0.6628829264420374,0.8578084274159049,0.024450856006822008,0.9736051637288591,0.9647068632110313,0.020398120077494964,0.060480145574600026
21,0.03253217368039928,0.5586150196641347,0.8801464502597358,0.6629221168681251,0.8582967603824962,0.035837034129718635,0.9706220339060695,0.966579527887392,0.06781406202557586,0.07600110295380237
22,0.03592328673621513,0.5559467986432591,0.8866241251959094,0.6616308171932598,0.8594518662139505,0.025891293276898864,0.9675456393841204,0.9680326343400921,0.02069724883860582,0.057358283286647715
23,0.04050546254551732,0.5516836793621644,0.89494328789111,0.661030873559359,0.8618578499147312,0.03432006398746892,0.9632444360755533,0.9690051260567946,0.028821541426178435,0.06263766439216921
24,0.04584793966062023,0.5466517334397113,0.9042269553861221,0.6609599597096293,0.8641521528845657,0.04347108962519618,0.9584055038450485,0.9693294181234026,0.0750591204318431,0.07074126385054393
25,0.04960743755747237,0.5427327442647053,0.9109364926177493,0.660303822762968,0.8663959176205612,0.027252578755966234,0.9541413355345647,0.9695263552621607,0.02707794230571168,0.06173464101029373
26,0.05414232699091448,0.5381135951614043,0.9190188522684293,0.6600201508045714,0.8701116565323741,0.034586099989745406,0.9501978078509571,0.9696118028435396,0.01810033335665321,0.0662421823886053
27,0.059584499093089,0.5344604744828648,0.9290383384636288,0.6599382717871357,0.8730252208484923,0.04664024641539455,0.9448067631805944,0.9695408634671134,0.12449664785443879,0.0757968903648572
28,0.062514138997939,0.5322140688946901,0.9341876577223437,0.660165749938159,0.8747009994866743,0.022200250678417133,0.9404220030953008,0.9695258385352281,0.016953461562827708,0.05314059570687937
29,0.0658381651940131,0.5303401783269467,0.9388792518711578,0.6580606357309112,0.8724774543503356,0.040279684738338664,0.9371075139862162,0.9703364282252673,0.06082402317979345,0.08791844768770465
30,0.06976043313291021,0.5296125445585306,0.9433943906961862,0.6551823728574676,0.8589439379537841,0.07800635039583381,0.9329641925565187,0.9719297968811239,0.18796843974052843,0.14068283201559184
31,0.0730634848230636,0.5312450550091664,0.9417081836220904,0.6448050474794629,0.8181198720206747,0.1685075878282764,0.9314619339707311,0.9747755808096382,0.1326308447388745,0.34564740707545444
32,0.07738067341664787,0.5284547448592704,0.9376730032777588,0.6172450595273598,0.7597320553761647,0.24688625805153525,0.936297460652466,0.9784879817902247,0.03520373987647109,0.529875530518433
33,0.07776817884900702,0.5246763449892573,0.926909934348126,0.572367379272707,0.699464338419124,0.2677846772193034,0.9473653031588719,0.9826840981202221,0.5356639123629859,0.4778190317736979
34,0.09353560114637074,0.5026178482052168,0.9351454572198525,0.508870959278759,0.6447467681504147,0.38136213842135397,0.9488711935308255,0.9881639388313831,0.0690955414688124,0.5809938858788083
35,0.1133641717133241,0.48173333529228834,0.9515713304004155,0.43646421649014167,0.5958733429301364,0.4197526412269492,0.9353456704120328,0.9926467078305709,0.01947237766010267,0.5468727750297828
36,0.1382473094455665,0.45846400550207644,0.9780989179570619,0.3586259167178391,0.562885489622395,0.4462520505633862,0.914414022311104,0.9963171158850386,0.03535312475308748,0.5318814836918758
37,0.16875772935747596,0.43374298842062897,0.9833519929461623,0.2820551695982506,0.5426363476125126,0.45321659883373805,0.8844503522240981,0.9990334585032281,0.01417017593213482,0.5559189100860042
38,0.20251548070289865,0.40556132525855926,0.9369445957011718,0.21013314230572055,0.528713709955979,0.4696693100453706,0.8459152389890787,0.9999586099964283,0.06587742943772876,0.5360304850368911
39,0.24045006499236715,0.3790040646082743,0.8841159892236187,0.14436159200759324,0.5236893292535066,0.47977750432057864,0.8010075464047632,0.9997916275389457,0.14796354231825887,0.635541400439113
40,0.2751458824287754,0.35422834980828044,0.8366971500626891,0.08474338257332154,0.5181496123122475,0.4504916679276967,0.7567067698354686,0.9972471791748322,0.33689103770604306,0.5536864418224178
41,0.303359666111956,0.33631853181197496,0.7999732680764101,0.03848862773831602,0.5126753378382963,0.3864178913737362,0.7179760041943132,0.9927130675301482,0.2719997760724146,0.5038786674857468
42,0.32648422017907075,0.3244183002520186,0.772651631562728,0.008728766922153988,0.5030654646338879,0.344039551243733,0.684209084657207,0.9863553194410883,0.2061962877777483,0.4696589238242335
43,0.34304245178059756,0.32081008014237805,0.7611781534995351,0.0,0.481451275123547,0.36489909577435553,0.6530108964703237,0.9780242727582867,0.3376732039146573,0.5125634746584745
44,0.3629900003629032,0.32064030968327434,0.753117321398357,0.0235886188222601,0.4426997833278367,0.5785220350951439,0.6149857634960868,0.9658087819729075,0.6073615823570249,0.5296278160558502
45,0.38492967006826245,0.3191603039296037,0.7490066181754461,0.08491120162120548,0.39475879390711627,0.8574575853058748,0.5655970050819216,0.9475780775776829,0.15394747838511333,0.3896691109475815
46,0.3802275501828309,0.3392779370571393,0.7862450438858837,0.1700907636323346,0.33692721432147565,0.949825402940669,0.5259265764532528,0.9230017764487325,0.13818381898638732,0.5511551701418221
47,0.3492256318298308,0.3792412390230047,0.8622958767949271,0.2543640857676838,0.2699657933547163,0.8965855950653913,0.5166905508492531,0.8940145481117097,0.01733645588393868,0.6978366840334912
48,0.29773548942873007,0.4244117039952513,0.968064962425312,0.2954690118689534,0.20223465895006484,0.7380522527376078,0.5407838021151358,0.8633902161093651,0.3304072202273554,0.6143889585320037
49,0.24206593949019123,0.46656634895286914,0.918819104841904,0.2743687022336403,0.14023530350382696,0.6025133962942778,0.5874529090705974,0.832928809340912,0.5131326306050263,0.6355181320742607
50,0.1948102765857129,0.4979535104180324,0.8190290314026747,0.21688619200175535,0.08967388746625334,0.49439369864929067,0.6392210540702136,0.8032009125260648,0.8930013532906855,0.4686322355671173
51,0.17306824450969016,0.5182846590624124,0.7650580531589355,0.1757858333635304,0.06034916660819136,0.307719769060786,0.673054828845326,0.7747020152100689,0.2806093418979951,0.2966391283784162
52,0.1679617975543988,0.5373117362259814,0.7473814646433792,0.19233640093731005,0.055387079484737096,0.3269186907401218,0.6752687146041962,0.7476113563704181,0.14198899799557446,0.5854369079716811
53,0.16536229667553537,0.5597453338632395,0.7345612795490535,0.2744607917262988,0.060880177153020576,0.46946285436746155,0.6595130343718278,0.7215567134321896,0.2596942521053901,0.7259969275192062
54,0.15281833407685771,0.595432253169941,0.7010908808227343,0.3831649585737127,0.05768619495693094,0.5337846563012646,0.6485592334307418,0.6970560820609064,0.09541052365034605,0.766683004111798
55,0.13326453593116377,0.6308028373211835,0.6543210443426887,0.4522516989152866,0.04768078368456929,0.4119764677995639,0.6537700690732312,0.6753992293218809,0.5144551948280572,0.6588864046107205
56,0.11245656388641953,0.649525688001368,0.6043277220077252,0.4401482553936842,0.02864151220361157,0.2685994752405573,0.6703221451126824,0.6558164859005617,0.035521120963810625,0.33784843187244634
57,0.10528753312538348,0.6476729666892558,0.5800947594815884,0.3678762524475583,0.004420308244521456,0.2434333883346464,0.6860647808661139,0.6373019377725189,0.07091221566760277,0.0952698897060061
58,0.11052847357319356,0.6318865858336603,0.5858743771568659,0.3024855119322102,0.0,0.2848142717214561,0.6941251743846897,0.6195377314593586,0.0903031840746531,0.230738049838865
59,0.12813656006799112,0.6059926369093434,0.6257084606801903,0.3065640374617052,0.030782812686753022,0.2637122006082704,0.6856340373908707,0.604354435344982,0.02390885468168603,0.2993061962934222
60,0.14538810011715944,0.5800634832484419,0.6662938909721955,0.38652100374636744,0.06776275421943016,0.31071642727141974,0.6641652981963131,0.5922699553271865,0.024001463372988936,0.19121710800508063
61,0.1546538927127843,0.5719492812228195,0.6906881336642737,0.5055302326869422,0.10241236293275627,0.37221822306051067,0.6498879933835177,0.5835692591590289,0.018759638789184973,0.03548019612693799
62,0.14799612560626527,0.5775741933332108,0.685707505695099,0.5873124453526801,0.1240093444697929,0.42610800767566287,0.6554126717066137,0.5783068229538166,0.2383306327035869,0.3543983259472623
63,0.14065135792220904,0.5829542694941084,0.675544031955689,0.5991583584737336,0.11829794094505863,0.412349462262414,0.6778798222246488,0.5749806652705716,0.19322248762704938,0.5506727026096181
64,0.13119183189895273,0.5858999331320702,0.6600876043240061,0.5578811749400935,0.10603858427584312,0.5589053920415197,0.7066980547141628,0.5731398241832791,0.060201318589362174,0.6689127625339407
65,0.1220116834518651,0.5962702412373204,0.6470839056929428,0.49365593691371473,0.0966123983639054,0.5865125587415091,0.7350599125329905,0.5724485148010827,0.11270554322905987,0.7504478693530395
66,0.11225129356115768,0.6096884259692384,0.6361997884111935,0.4196911870817204,0.09351987536461782,0.626576258045061,0.7584390986072511,0.5734048100348406,0.18788233199889393,0.7272353163780043
67,0.10485692256919983,0.6238957476364148,0.6310748199871612,0.3409864450323395,0.09435253479963401,0.592785149221788,0.7743468451003042,0.5764982697548152,0.054720275354811956,0.6357648133911725
68,0.10144312748254224,0.6299799616928391,0.6350005980307459,0.2637805684017918,0.10115608334529087,0.5360029816800698,0.7783946504152268,0.5814829562392039,0.07090670811753888,0.5135576091153923
69,0.10495644684363696,0.6271290089675192,0.6531091491789283,0.1889177460082528,0.10928779711372665,0.4936214095660944,0.7691285556160197,0.5880078221051338,0.19078495787161664,0.4067963126438584
70,0.10807248590473474,0.6166270427295343,0.6695314932530164,0.11964978708333304,0.11254073060186853,0.41187422879728486,0.7514445292448088,0.595434102045961,0.1864038266559397,0.44799830073023544
71,0.11061469175072101,0.6030992096344219,0.6835085194500803,0.08108058065326078,0.11809862082113841,0.31856060732259217,0.7296735726449303,0.6036523826537006,0.02983617574979562,0.38086333644288983
72,0.11676421887897076,0.583582488286103,0.7022784251518122,0.05063696277024276,0.12557533868555223,0.24267971077346817,0.7026581153933771,0.6123015997849112,0.11286485520663303,0.35124764115723295
73,0.12231765745018941,0.5645782955300143,0.7178513132971951,0.022469444334918483,0.1324284075311912,0.1826783448502835,0.6736690931552781,0.6213999540676931,0.17562972030944787,0.3325302936183836
74,0.1401625437449788,0.5380666992514025,0.7536809197025277,0.006624352687324877,0.13806258467375276,0.2004791195020608,0.6414715280392591,0.6307636242180923,0.25829774859157156,0.17148752299056094
75,0.15522679615719223,0.5263781298640547,0.7814747506626606,0.023724109276731443,0.142789435302548,0.15506929396837027,0.6074975991980712,0.6404458073186109,0.13248683533950023,0.0447113129778892
76,0.17394350557947424,0.5186394031907366,0.812639584128395,0.05120840306731109,0.1462560340512972,0.2178834998251833,0.5742980654840033,0.6504258022371144,0.13578949666000187,0.05091820287917746
77,0.19661647000218604,0.5145618656507166,0.8488902129362816,0.08145736096718033,0.1457645138706793,0.2907547192627032,0.534795903727296,0.6604350868378155,0.05886992595307799,0.07318952364701181
78,0.22226468315180947,0.5150519380099455,0.888132465303629,0.11341121160292893,0.14378011274222502,0.32830791649080565,0.489519014971663,0.6703196461211299,0.066335605741703,0.14865440759379112
79,0.2512167649555287,0.515697994962319,0.9335877096214719,0.15397732924412252,0.14385655614668277,0.35687848629841556,0.4439205831621141,0.6800029241112205,0.19549431572149248,0.1796060637392972
80,0.28577690254663585,0.5138898974873308,0.9925707248820217,0.20949768252833972,0.15084621013623917,0.42416239779381487,0.3991572195999038,0.6890937862749758,0.192445866800482,0.31003921754647784
81,0.3269481550827767,0.507614207500882,0.9325476819430794,0.2925023203147044,0.17382730242281852,0.5193092297657231,0.35155397968382585,0.6975575995279474,0.16905068801573286,0.4061818452787785
82,0.36985375649090296,0.5050490716370314,0.8579413123145441,0.39656715201560305,0.19152029074604845,0.605913065856973,0.3017375129143391,0.7048323354106081,0.7700668959973965,0.37617149358626895
83,0.43265618601395384,0.4962106326502652,0.7595533528781171,0.5222837376814276,0.20319503661651064,0.8497126226680107,0.2507895216111144,0.7100667239123029,0.6239039953730943,0.673855957090439
84,0.47078135647092584,0.510689215948015,0.7026881544136437,0.6646158232240383,0.21496682996854338,0.7802412419611815,0.20323655468795193,0.7130003345572218,0.21730825083821032,0.22380337777018863
85,0.4978273690903673,0.5353286980683932,0.6633569685631066,0.8040026863686537,0.23046562491979056,0.8163646487409707,0.16246585387713133,0.7132268673904463,0.6247590040029941,0.1266966698956844
86,0.5100618569064959,0.5752219830172024,0.6470253225254456,0.9138522835505104,0.2375398278935777,0.7266174865320946,0.12347142504892472,0.7111373459132417,0.16204693801405698,0.3043994517251184
87,0.5088384725255697,0.6270819471443695,0.6512556624578844,0.9786623697611404,0.23040778050340718,0.6037952167651576,0.09068119281770964,0.7072155335535892,0.34759714876635067,0.47855608301011193
88,0.5013667810439487,0.6770996080910209,0.6648480160490952,0.9999999388474289,0.22341490937246644,0.45108440909900077,0.07402734445255124,0.7027178285029058,0.41740981544010236,0.47897186008354836
89,0.49748434286165544,0.718843386610635,0.6724786500708848,0.9793115009795211,0.21722679367914302,0.33878124136463456,0.07236312083706771,0.6985066692165278,0.42140969137592704,0.35972641748591855
90,0.4995132904766218,0.7478597852736164,0.6709858380316569,0.90779469612406,0.21336788938624635,0.2900924174882035,0.07255004073691122,0.6947742694727695,0.041075893978442996,0.2883819409673451
91,0.5041072087855688,0.7722782649173311,0.6642106594195827,0.7982554238654405,0.2110738279017336,0.35393660065018717,0.06622195976262989,0.6915722445738903,0.8752322421886992,0.2888672261581623
92,0.49684177975839333,0.8029082455755449,0.675893060586137,0.6651130277517621,0.21068241691260273,0.5576794552585495,0.05172225377743121,0.6894029205972296,0.30740184017542677,0.5280705049838976
93,0.4880414595956471,0.8263783769270583,0.6896163440275982,0.5142380665579126,0.21040018728496496,0.643628655483227,0.032653823745582865,0.6877837349401328,0.1149771624682923,0.3776720567014842
94,0.473153301968232,0.8453147051025758,0.7140815217598375,0.36562394003354787,0.20318266561333703,0.6260601905153248,0.012663277418797308,0.6867221600674389,0.06769486430663205,0.294303840921598
95,0.4499891907505021,0.8590881256191646,0.7496669139970508,0.2546024582762317,0.19363441143286317,0.5374648231476977,0.0007384046949379763,0.6858933084117004,0.14778132426999346,0.24137621134138584
96,0.4251888403212211,0.8610870504235835,0.7853207708998935,0.23013713997282945,0.19625391444935,0.4209850391432378,0.00013670210874182974,0.6852143624171791,0.3502448145603972,0.40270020264883516
97,0.40721937629964106,0.8520652314847011,0.8089093185835662,0.2348955700407069,0.2032543832595999,0.3565628729147619,0.0,0.6845193080947486,0.020489927451189036,0.4395534279108028
98,0.3864070273886482,0.8418564614282876,0.8390740032740822,0.32226388385635946,0.19959627683789755,0.44584159955867847,0.005884501342766428,0.6835656397373019,0.019607654214819022,0.4353408679065423
99,0.3575973856202413,0.8496602768277163,0.8858494863244909,0.3967694356878738,0.18666629882375124,0.40236931024739087,0.028744757645280793,0.682447893810479,0.8187038165671287,0.32502908421248117
100,0.3392605266003876,0.8649986776100312,0.9204502578549792,0.39077395826185835,0.16218219704572645,0.18464362957929792,0.05253894099155036,0.6806703578391448,0.1121661077740399,0.20319136051339767
101,0.3304280738924337,0.8810006154530735,0.9388206687036607,0.3172727206744274,0.14073213060389173,0.2248126143463641,0.061849771458272744,0.6779507759570841,0.04951528873391966,0.20124805813755736
