Frame,Center of Mass distance,Symmetry,Grounding,Arm fold,Leg fold,Kinetic Energy,Potential energy,Bone length coherence,Torque,Center velocity
1,0.4253767703389936,0.2212870900385482,0.999999802599148,0.8956679788910932,0.9917918368330637,0.006580984460193108,0.6765810504037288,0.0,0.017593827710602493,0.011905512838778378
2,0.42451379416321855,0.22340764537605734,0.9981609813174999,0.8948706594988424,0.9919547642915184,0.006580984460193108,0.6765810504037288,0.0017940701240159562,0.017593827710602493,0.011905512838778378
3,0.42323258316978535,0.22567493213279397,0.9957542953644608,0.8939875821441605,0.994234642441081,0.00925678493217817,0.676385107196016,0.0037406817170205454,0.03049732630542615,0.012853795780248853
4,0.4220232301289242,0.22673631895176688,0.9931216316189293,0.8938756891464037,0.9951454383607007,0.00995792780572783,0.677114856368993,0.005948748851121916,0.029525887183912223,0.004399653858316979
5,0.42049829372536945,0.22823696752598732,0.9900190418874202,0.8946626273039244,0.9938694000422521,0.00854165580842709,0.6786975935763846,0.007927128452533651,0.04109616981176416,0.012273255670310769
6,0.41963555388815627,0.22961662845239877,0.9879484024329557,0.8944511256642139,0.9922666959721164,0.0,0.6795468224983421,0.010159164863594743,0.024615217668248483,0.0037047063707685624
7,0.4185218475694904,0.23123560379745636,0.9852348718829548,0.8939335374363709,0.9891833800450055,0.003413902933227586,0.6797230720093349,0.012646079910373732,0.008668844154624935,0.0045792718501048305
8,0.41600850975577464,0.23488947368825314,0.9800405274758159,0.8934583526760645,0.9861658333473019,0.013955540370866779,0.680356267613152,0.015542885148272395,0.0307581673169817,0.019416939867180634
9,0.41387944001397164,0.23819374950473451,0.975417641820266,0.8929741532557495,0.9845120092039986,0.010989004250208741,0.6812001908727443,0.018533074135434407,0.03481334650245848,0.017863399556920432
10,0.41198347482726777,0.24090698756275064,0.9712723195711178,0.892526490868141,0.9811711886743475,0.00871680570868748,0.6818040009342833,0.021399694625919854,0.020384723016060747,0.01981109668050544
11,0.4110850733216207,0.2447096633047778,0.9695386251352792,0.8925079228908485,0.9795155009275501,0.009718392397795723,0.6818848318709674,0.024700549402110895,0.04762938355076226,0.016007120484317013
12,0.41027670654833914,0.2468945294903262,0.967721368334824,0.8917559350266286,0.977170093072516,0.004002691706460397,0.6816871195299509,0.028308119637445547,0.011748744211216192,0.00981679401124549
13,0.4085067339995456,0.24852094227626975,0.9636820714515343,0.892018155641449,0.9760165098106017,0.009278198788472912,0.6821947781543507,0.03216997529213411,0.03730337524718068,0.003526874310352811
14,0.4074145821686363,0.2499206761624782,0.9609038474579564,0.8921466185479998,0.973350001321856,0.0044111711791805395,0.6830969715518037,0.036124127404225194,0.0240112455637912,0.001851589313057697
15,0.4060007771804875,0.2520175634972117,0.9576691752791465,0.8924710364768621,0.9721308856804676,0.0061862939135190545,0.6838068426272019,0.04008124365903618,0.011964184902968302,0.009023352439364926
16,0.40399217208250066,0.2545569779816878,0.9532017335921906,0.8922219642587251,0.9694875934337447,0.015504503907810566,0.6846415804954407,0.04424093619479746,0.019925612968944368,0.007762535836590462
17,0.40053077876545284,0.2579985018941702,0.946099831119603,0.8930934378588999,0.9655228246522949,0.018750620571497328,0.6864287921805765,0.048330154589940374,0.0069329120655785455,0.02186482120259966
18,0.39578888970670445,0.26316646567825175,0.9364155820242662,0.8936582032721327,0.9611844058959562,0.03126351053787645,0.6894410741986399,0.05251993730064681,0.09405805683071991,0.02170428023352507
19,0.39379915651815783,0.2659166970644212,0.931771581147549,0.8939864263529811,0.9562019800791417,0.01261578305099215,0.6913179225990167,0.056723447168495526,0.013413229305300298,0.028149941780190483
20,0.39081846883660154,0.26957111015244617,0.9250371733752766,0.8945806088735558,0.9518723263509711,0.017599655289070232,0.6923625050050201,0.060911452058706045,0.012059118724599556,0.025115118414845795
21,0.38724426061354716,0.27244894828072874,0.9166252286702715,0.8951180313505043,0.9427088977196866,0.02340661479425356,0.6946536380234143,0.0650936759644995,0.00826064436431565,0.01990440207559767
22,0.38219689734186096,0.2783012643466174,0.9057118041469868,0.8951141535097911,0.9359443260559909,0.035187580348003844,0.6981024004370114,0.06955653608485843,0.06646885015959546,0.024188036059777897
23,0.3787482155523302,0.28121511851594166,0.8977648435676847,0.895135847422071,0.9272616753856402,0.021992379190128787,0.7016297849279812,0.0740560244938817,0.007265037228025546,0.01686742742338813
24,0.3736324528290403,0.2850360263588254,0.8868055945218669,0.8949211972730443,0.9228004780310664,0.03892343366344021,0.7051937271956705,0.07868565307727249,0.04640175116723922,0.029731555813781736
25,0.3699817698240849,0.2884258983160116,0.8782045113464061,0.8943085898094794,0.914352197995479,0.028979569711377315,0.7087844539882808,0.08366394899659642,0.070420417875854,0.014497344111381752
26,0.368551095372974,0.2910117815783509,0.8735753360505091,0.893427213361755,0.8994584199251957,0.02129463909348455,0.7110615013849864,0.08897536435514208,0.011959366202552186,0.018046006781410915
27,0.367732506455854,0.29301947552017904,0.8690324186793819,0.8918746470316713,0.8777069350183319,0.033038834331001146,0.7128543638436102,0.09460003023056188,0.012471456339050571,0.03476225620063513
28,0.3680177611634318,0.29326209177109575,0.8663660604319863,0.8911225165954477,0.851908556021216,0.04008721122017215,0.7147314508407459,0.1005176520102274,0.0412674420648013,0.0561412242153298
29,0.3715232121139993,0.291512399584276,0.8692516575715016,0.889999661390098,0.8180224572315812,0.06701169866950249,0.7149693879771589,0.10676836335491945,0.00827683776138063,0.08665691155770201
30,0.3754831199698911,0.29094891935529266,0.8721808329334219,0.8888740364941721,0.771174849869506,0.08614906771428378,0.7138724688858211,0.11319291308007934,0.009217714485772771,0.11345626297564108
31,0.3811955600337522,0.2897046884448429,0.8780751244592545,0.8869691367806873,0.7196733072606725,0.10264954085308196,0.7122632201761877,0.11982746875124023,0.18627025522118232,0.13382888968182224
32,0.38600758018890924,0.2929120456375741,0.8831292997386453,0.8813738552676732,0.6839729985014394,0.05702184911654269,0.7089808655807092,0.12650719113472597,0.17202123552788565,0.06852050427569636
33,0.38415616433153776,0.3014826971486369,0.8776972967783684,0.8680653944604522,0.6665034614098128,0.04309322831245369,0.7064356774703786,0.13307412802944904,0.08326728216027475,0.043959682276981264
34,0.3820801691700015,0.30885536269682995,0.8753085812263222,0.8473556942382212,0.6854579066920691,0.10246262335887607,0.7051538968607831,0.13928572264252492,0.027417915094286337,0.1257918812756083
35,0.3792899477367002,0.3179498810508253,0.8727882324869985,0.8211616025037134,0.7168305715564718,0.13717247369920355,0.7038671990825139,0.14489401684528525,0.3062089411395264,0.15193567024734803
36,0.3755625256064988,0.3277931783309314,0.8677205794068643,0.7898114600346585,0.7504458865373977,0.23887013891371633,0.7001566608694986,0.15066294767500177,0.18985636271468728,0.29144758014780453
37,0.37192806562615066,0.33295943354767565,0.863016826946845,0.7608365194775948,0.7847468494418565,0.16604169010832492,0.6968813236333361,0.1554318018951321,0.13299192868638682,0.1772922296444821
38,0.3734465978199762,0.3380377719231792,0.8664096386543957,0.7353192988165778,0.8009147522931164,0.12459084037720017,0.6943118665171448,0.15940697217603764,0.006924906514780921,0.1190676057129158
39,0.37690334669769937,0.33950869851965204,0.8708770803413517,0.7102107744163739,0.8090397442855464,0.1311497174536878,0.6895393084906271,0.1626865837606201,0.02607219745649335,0.09529353511459082
40,0.36727276214366206,0.3580891254549242,0.8498665367599076,0.6847541592249483,0.8052196149936551,0.17406868145190624,0.6881489165648097,0.1656495352975438,0.01342966349830075,0.1635967267125116
41,0.350392069488107,0.3866608978966037,0.8146742019745048,0.6555638384344087,0.7905829461962486,0.20966280594135,0.6921531471558875,0.16871042268875766,0.18942015241267257,0.17614606096968177
42,0.3377891071972775,0.416592273358219,0.7878897685538833,0.6260174407384008,0.7725014072090123,0.17277714070823338,0.6958749982550266,0.17207602616098755,0.0489512853252508,0.13360355951225664
43,0.3215459877892888,0.4510614453429895,0.7534521906102037,0.5955191730621437,0.7558908440901015,0.20895902863426227,0.6977047995849603,0.17591640497204653,0.038077115335463325,0.1581009050246274
44,0.3073360135275301,0.4868767934914938,0.7233158281442896,0.5672273111958388,0.7480454917518714,0.20525041813265696,0.6984677003381733,0.1803630988328503,0.015923975685937418,0.16114721013160582
45,0.29323572380283563,0.5246076756568813,0.6926443969887998,0.5408552664797047,0.7383311823685105,0.21325846015829433,0.6964046293666144,0.18562808190476313,0.04430821208984085,0.16267092362356916
46,0.280420730057692,0.5635088028566307,0.6636693716870841,0.517694285671374,0.7245461096536195,0.21788355541104892,0.6924408756744028,0.19193985441092729,0.13881926409858464,0.14874831913095657
47,0.27247481053647904,0.5989329166873458,0.6448705352079016,0.49843986772294063,0.7141990730817179,0.20736845157851824,0.6840765293719261,0.19955859904676418,0.13639362763121682,0.13800367092211716
48,0.26827610934446955,0.6314412042735551,0.6331080092376785,0.4807040478747732,0.7091096652233574,0.2069936764878897,0.6707745027208588,0.2087179725483607,0.15356506880802442,0.1290626798887279
49,0.27295346949572585,0.6552822169617734,0.6396905671215574,0.4634294240508181,0.7117570428502225,0.2072942865225142,0.6532244219924961,0.21961932764104392,0.31181470618314805,0.13677408939544367
50,0.2883688490158361,0.6697097006327645,0.6680554973095449,0.4480792937533927,0.7169908320547463,0.2644516818689597,0.6312343637575474,0.23212786900059396,0.4861733926528252,0.23925241543392137
51,0.3124428943503888,0.6740843806578508,0.7126149036127517,0.432893129385128,0.709074337083578,0.37765523092434816,0.6072350632016802,0.24638888281033883,0.046486268360052624,0.3866520716056118
52,0.3364650752721992,0.6704947996536162,0.7563894526525736,0.41821222962066673,0.6894747506636205,0.3732601873918748,0.5886882196647844,0.26102050278223954,0.6305157149729822,0.39150347439803734
53,0.3398054039762512,0.6766015421582244,0.7607396374730468,0.39875181802951976,0.6544761554631487,0.18867587972719316,0.587092196008012,0.27406491111478476,0.09254468646101385,0.15201610574125235
54,0.3207280828547772,0.6905831129771521,0.7201067637868964,0.3867294966409922,0.596958944378394,0.20106048346088726,0.6067466665680975,0.28460511745800277,0.35481596466229987,0.09310926806625502
55,0.2870511818780598,0.7134935696653266,0.6500846470561333,0.3867330418899445,0.5245324530044783,0.3070086904070875,0.6409526004315511,0.29326011365250476,0.5413116680000284,0.24683945451968348
56,0.2697073795292445,0.7243374754535231,0.6097240249450318,0.3813693905719276,0.4597883967118487,0.21477786860344583,0.6749315199610461,0.3005997306088413,0.05061009774657317,0.12612082750654896
57,0.25364539605658076,0.7367095078918103,0.5725845972119945,0.37412302962189087,0.4188932886598886,0.2074688912782009,0.7016856681805896,0.30715948871022186,0.07215452112224856,0.17420004239074696
58,0.2423222671273921,0.7467753698000946,0.5480702746968642,0.36810175464823625,0.41729503450340455,0.18120406493936447,0.7236231168258832,0.3132494257098704,0.07984440738666665,0.15186687111239405
59,0.23299329864574458,0.7564113592203858,0.5276127702059908,0.3626102361964648,0.4188924574392474,0.15813621074272874,0.7416280445617931,0.31898545881004364,0.018026751476538254,0.13003642606758287
60,0.22043084003376234,0.766867976534213,0.4992002184553679,0.35769861302950584,0.410769667937682,0.16638036051230135,0.7591770051676481,0.32451745335428117,0.009278234625549135,0.12365870683649377
61,0.20629537689099833,0.7769679445900182,0.4668458592468472,0.3531294332595635,0.39587918045569065,0.17128931688855153,0.7772501345015096,0.3298538357591336,0.026322164645427762,0.14915106580258514
62,0.1899897288814369,0.7854866838796194,0.42874142098046564,0.3488791024113034,0.3740762237928316,0.1936612050654145,0.7947726593881017,0.33512628727513516,0.019278637060286194,0.17667653332364383
63,0.17115017848793637,0.7934539306512822,0.3851973423333855,0.3447366939928283,0.3496660210736256,0.21655084559228863,0.8109663436509923,0.34037169590426425,0.2792775786797733,0.23527742658228254
64,0.16133661517942074,0.7973904302704253,0.35996150821837053,0.33947408339994456,0.3369684888874058,0.1514954839603955,0.8214657749219706,0.3461219017711676,0.07289866254673945,0.12210099720980945
65,0.1617172962415441,0.7962498540162063,0.3571823857047415,0.3317416922389978,0.3498328002150047,0.13584845872942344,0.8225239488037527,0.3529243177245354,0.03159116702274896,0.04016266952639522
66,0.1737674058122002,0.7847663340147546,0.3811274957684085,0.32145595866307497,0.37712466260025573,0.17698792634385627,0.8114569637325675,0.36098948780598594,0.3842430350396884,0.06171421641220282
67,0.2017654860400306,0.7616408825409133,0.4405448296129468,0.30967442614700436,0.4295544476524578,0.30038182395735985,0.7858882432128131,0.3706823701054529,0.5535652191695839,0.1986226044566383
68,0.24908341357758607,0.728167610440045,0.5409647781440785,0.2971236260725975,0.5011423637684539,0.46118823602880593,0.7440592209399401,0.3821953311425429,0.520067060715038,0.345747634989672
69,0.3127648376594861,0.6915344060554919,0.6727695827501374,0.2828198756018831,0.5894548564209552,0.6230075256448817,0.6880739747996377,0.39571435327488264,0.18301834481235063,0.5510821743966378
70,0.38180966540301337,0.648186585610761,0.8135389218917464,0.2647155576586517,0.6744252709718963,0.6886557106134527,0.6278189720638111,0.4107929906343591,0.38301387837638323,0.6339483352575432
71,0.43694515382910193,0.6029283408339762,0.9257133097126538,0.2471608394607342,0.7519019424986961,0.5825970023436231,0.5801762812008578,0.42605393172457184,0.9999999996175953,0.589446529865748
72,0.46462606540953666,0.5797886691261112,0.9801047716593672,0.25190388798753394,0.7875148200858751,0.3186887035698807,0.5561754168456245,0.4400772414735468,0.7832605514568345,0.37234046956362976
73,0.4731226292197016,0.5603522295425434,0.9982971071050243,0.27917398533383336,0.7897284667467034,0.19480887682475112,0.5512780697003892,0.4525542482072768,0.18707845156730618,0.21856129408920122
74,0.4785889585113782,0.5241380918176896,0.9936328895271906,0.32823387680008853,0.7359334536529801,0.385566384780607,0.5509815805428955,0.46312072489636724,0.147012409216065,0.15200782416272474
75,0.4984202100670555,0.4845094072933051,0.9657675364868168,0.3770299039738811,0.6475199476453998,0.4323449649507376,0.5429717188636043,0.47239923059713285,0.09291368141234431,0.18637439903981246
76,0.5151287303001133,0.4586098668789484,0.9347101909699934,0.4091647302744823,0.6057987850027746,0.3114592618600826,0.535845806389563,0.4813306778025682,0.012483322999789053,0.30014886053751527
77,0.5409701608938611,0.4313296673032007,0.8803030049224086,0.4190288096890205,0.6353154570032039,0.32196411992016305,0.5317299145300087,0.4896300955688199,0.03776035736713542,0.3089408528322901
78,0.5732355567575819,0.40688176016254396,0.8204907715160406,0.4219536112882881,0.6806490835914695,0.34125575017822873,0.5202399375002286,0.4970583788586698,0.1443858491337218,0.31791774133405926
79,0.5949191951457817,0.39453159919062425,0.7780649010707729,0.41732102925957415,0.7193121537192162,0.2595725029313611,0.5095760128512383,0.5039299785015597,0.15991249110089836,0.260427939057337
80,0.6057989254102256,0.39008643223417877,0.7544113607632263,0.40594306169174316,0.7465312493805476,0.19806477222158686,0.5090164555961798,0.5103513947443893,0.14217973562820482,0.20253318257972422
81,0.6122907932742474,0.39165122323358903,0.7387465622172891,0.39024842281082067,0.7695021834336312,0.16204606998671714,0.5134306081916679,0.5162698553570063,0.13790431880130596,0.15193634113987456
82,0.6126339712947954,0.3963694094793357,0.7352881585461103,0.37397850194289817,0.7762644844404283,0.11837525905806624,0.5197586494084347,0.5216662334173668,0.08768874042988457,0.08449964020631802
83,0.609638527223114,0.40439598524274006,0.7396302566861384,0.3585930579453395,0.7732410185445249,0.0939661360414287,0.5291060486528733,0.5266907320796549,0.08092087425663884,0.05687386274802379
84,0.6029156645880752,0.40968736290334185,0.7499830046984306,0.34793327248433165,0.772413810999805,0.07487925856178292,0.5395155870097882,0.5312928605742291,0.018058552675280188,0.042639758176751065
85,0.5953135085530749,0.41368200675323097,0.7629585327357068,0.3407362057852877,0.7690362590650887,0.0730009613423138,0.5494879865775144,0.5357662385826072,0.02591840190766817,0.05018033162115087
86,0.5842153660164354,0.41794375850570736,0.7830754981277541,0.33361264576404687,0.7606786220122804,0.10986810407569379,0.5601091910560017,0.5399943674938656,0.03143501280404086,0.10370424758915425
87,0.5731593476450935,0.42024199836810777,0.8048965067940018,0.32285941383948447,0.749409451989106,0.13784875813865632,0.5716454101324346,0.5442518743742382,0.05482305402308717,0.09199595179154005
88,0.5613944822347281,0.4192049566519427,0.8287571559729991,0.30485276625371277,0.7316560831473626,0.1840023731076724,0.5819342334040697,0.5486624072099787,0.14365983431845,0.14075616855219641
89,0.5513485615047878,0.41314938792774536,0.8496136033659261,0.27816159491706605,0.7268564067848952,0.2577728307401377,0.5894673976082846,0.5535415545902499,0.09009619930913562,0.19703923839284382
90,0.5490176705504064,0.40133985891005264,0.8572150829861295,0.24823530835915408,0.7389445110043587,0.3081451022285397,0.5917817280787283,0.5592053200041299,0.013033584051766656,0.17945206668530053
91,0.5631034978267907,0.3858891238035522,0.8339353270192432,0.2251081071555681,0.7714641013636053,0.30564598080717587,0.5843822891806478,0.5659687930494032,0.1073476270658791,0.05613223569663296
92,0.5962151169945175,0.36753892472489086,0.7743571580858127,0.22474668418787608,0.8333301993213513,0.34746972628429085,0.563973802153996,0.5739798532373628,0.17745440515282218,0.15440957928598717
93,0.63079121542969,0.3501003889703699,0.7118614945511053,0.26509895536795414,0.9032258779743747,0.3027295110210534,0.5366109988326284,0.5826012594501851,0.6192428392414856,0.19173599549166445
94,0.6421694235751626,0.348238127270257,0.6921852532434186,0.33041782010021714,0.9337804183522675,0.2010656927319901,0.5160993335383414,0.5908628708610195,0.18234815875217364,0.08939930237575472
95,0.6387108611648615,0.3523776427753657,0.7002175732274395,0.36203343394883314,0.9127774899481247,0.2914169980929698,0.5063144510385692,0.5980727053202637,0.0,0.12267772307921337
96,0.639275080394535,0.3577900134607706,0.7081178107641576,0.39901259861978744,0.8415108671674272,0.3485807220091059,0.49891286044864075,0.6042209231155288,0.27234081508805835,0.0510658846906946
97,0.6404063843006462,0.36577044025305333,0.7166586930962907,0.43661511928196856,0.7446618558526242,0.2457716379238881,0.4914668446586267,0.6100285826216837,0.18080555904178114,0.045276365376420734
98,0.638149462704908,0.3817547239899931,0.7230184180078496,0.4591746534121613,0.710300680434349,0.12695660756588123,0.4864245108970975,0.6159056091657323,0.013384754539121878,0.0
99,0.6321060143564374,0.40291254706281626,0.7312133701208606,0.4600646057822297,0.7160303266951485,0.12313357328867716,0.4832606198235685,0.6217279168645725,0.005087892778428649,0.0720344945702324
100,0.6232575105476962,0.42967813041028513,0.7440967998530453,0.4479204291116858,0.7115699365850443,0.14035977984749015,0.4835381436468971,0.6275317887424865,0.16415013645082363,0.06835969394804807
