Frame,Center of Mass distance,Symmetry,Grounding,Arm fold,Leg fold,Kinetic Energy,Potential energy,Bone length coherence,Torque,Center velocity
1,0.5321737069052369,0.42509840467057447,0.9691905094473268,0.9999998667974151,0.8421827810178586,0.10147416599080616,0.5070513547392346,0.0,0.34709663020272413,0.1117101760839142
2,0.527754066139746,0.4309407250950403,0.9631126889367799,0.9981666762568456,0.8393959515591424,0.10147416599080616,0.5070513547392346,0.004268914725402877,0.34709663020272413,0.1117101760839142
3,0.5258054175862026,0.4336720130935861,0.9602273362299447,0.9980921804354519,0.8376157049178671,0.04255805073576381,0.5097664538307591,0.007798335361930486,0.07496727372414885,0.05358910236593453
4,0.5237179613843438,0.43759095628350375,0.9570392011703376,0.9976568717110352,0.8357058584146422,0.05454161256300847,0.511282530736429,0.011568785872670559,0.17088243897823102,0.10480581767049633
5,0.5221504141160633,0.44050003202677174,0.9544683547120882,0.9974175381744713,0.8342350709842207,0.03747453252907072,0.5123159964082097,0.016184048672011862,0.13112789799325877,0.0610328240656604
6,0.5209152633607471,0.4425152962291768,0.9525469101350336,0.9970550650740716,0.8334331502881502,0.0275505118924638,0.5134310259568974,0.020263572195215258,0.12864393406866648,0.036762695944252605
7,0.5201094013139749,0.4454122834372906,0.9512101311448964,0.9963141128926446,0.8327848825490183,0.02956571916664726,0.5142065310463074,0.024890862253595675,0.13591914403443078,0.05015882079593449
8,0.5199681101613737,0.44736134254554516,0.9505495151024872,0.9966805695733283,0.8323084509392797,0.01973380061300485,0.5145030792414367,0.029450219367991692,0.10430528485155055,0.0622920103690276
9,0.5191404775558105,0.44932901803645586,0.9492935290465471,0.9962562187494939,0.8315373688301786,0.017327742068873105,0.5150891467791345,0.03405283549437309,0.10378469070437146,0.02896433588788495
10,0.5183013368614197,0.4511863779681883,0.9479728066963296,0.9955019931188236,0.8312603359878706,0.019602311935146836,0.5158331092054106,0.038406362275550734,0.0878652399115004,0.04012200748845108
11,0.5176206790236337,0.45187814294700474,0.9469293799688508,0.9946204909270798,0.8315626879954027,0.020669498364127604,0.5166460111262732,0.04249639004781155,0.12949165878162508,0.019554186882761792
12,0.5168649154602609,0.4526234962363336,0.9457246222402752,0.9946810060256224,0.8318399920047483,0.016008064528228116,0.5175532394178807,0.04628807503690549,0.12312760222763121,0.030343982941883684
13,0.5160534176438075,0.45427203434647007,0.9443939600653448,0.9944548078013727,0.8304592602350803,0.010758159833385173,0.5183500762692863,0.04990862540468986,0.10650825356910448,0.029867069972650227
14,0.514994177376231,0.45578975625189255,0.9426277296741803,0.9945736476139491,0.8275248778096913,0.013719221056622514,0.519301502831017,0.05315283804545273,0.10924276698253399,0.02491046385834245
15,0.5141392903408105,0.4569913459371826,0.9413258675041855,0.994236543325197,0.8267761723350248,0.009471699583128384,0.5203544296075425,0.05626593877310844,0.10312060356002027,0.01670901595495884
16,0.5130150228605448,0.45808695712817715,0.9397263203274252,0.9941159969873345,0.8262332002171368,0.012644234870811767,0.5213695501839655,0.059083501301969946,0.10350761427815115,0.020571285090702655
17,0.5121498361898239,0.4593600467221781,0.9383268439814104,0.994338595662067,0.8251527505685917,0.009417960382592194,0.5222932833291427,0.061925326580305966,0.14601777800645174,0.02338268644179896
18,0.5114255826666517,0.4598316025058944,0.9372434030877829,0.9939858809987658,0.8239750599741511,0.0,0.5231330508919605,0.06445160260709171,0.10492675387274258,0.0
19,0.5108617434413937,0.4593273583787208,0.9365132082723885,0.9942734566643274,0.8228034272610715,0.002164843068491003,0.5239391261590983,0.0665754909977408,0.09277778211709238,0.02055855525454117
20,0.5104441424586176,0.4595914425437197,0.9360368612881048,0.9953757088395603,0.8225690872593655,0.0038731860656734574,0.5243635826587119,0.06846385280120769,0.08129822036064194,0.007271133801589684
21,0.5100621230046698,0.46008310559852866,0.935627544403803,0.9957392603244667,0.8222146092771594,0.010680011550662182,0.5243578808327047,0.07021003307894466,0.08438702587959372,0.015713609150036157
22,0.5102797272135997,0.4601355747519779,0.9361487480329421,0.9961776240829983,0.8222981806580851,0.019422513693147025,0.5239005964241799,0.07180407807261237,0.038722344899867325,0.01833718331481874
23,0.5099696782332639,0.4618863965912138,0.935972124993825,0.9960265666299679,0.8223847162049154,0.05108728873769964,0.5230536520718521,0.07312117302316293,0.0734003571996763,0.05671967775922002
24,0.5098164876357886,0.46383023378796984,0.9364283374613843,0.9937094481831038,0.8228106231845895,0.0620822920990527,0.5218086983630787,0.07425566528392112,0.05159988566284052,0.047808907897629135
25,0.5092943046859599,0.4644080471730887,0.9365157569453917,0.9943194350828679,0.8239890884665798,0.0852927806162896,0.5208331580104725,0.07489963869742532,0.19801721766994,0.05160150127541932
26,0.510045355052906,0.46195790540833187,0.9384063625791084,0.9931026623549543,0.8256322761763335,0.08457217435343788,0.5208081755029939,0.07458123654006836,0.09501444751725412,0.053689984674868
27,0.5119429039770005,0.4589392989372108,0.9420384764758587,0.988218742614539,0.8266788018227221,0.08320326275433043,0.5206797045767638,0.07375888620026802,0.04119424244727645,0.09733311152925785
28,0.5140008133718585,0.45501239123852233,0.9460059957398199,0.9833221402572041,0.828711161036087,0.11643175634366906,0.5209378362699862,0.07206976212654076,0.10842421786615598,0.13080877870376095
29,0.519804836946052,0.4433242224072688,0.954563165347804,0.9798496322629643,0.8298095915027394,0.17567422278943007,0.5170683149098293,0.07076521581206059,0.26484414872546674,0.23657391442338027
30,0.5240936339964138,0.4377794614400603,0.961372200142947,0.9735958705878526,0.8362124690506464,0.1372871937182348,0.5118806109008965,0.06869581854841501,0.06877599386238341,0.1884485171844341
31,0.5279241039877615,0.4322099343890113,0.9674115356911476,0.9675714099370827,0.8395575007579738,0.15166364305676902,0.5106876059658738,0.06619340698441997,0.12028956659061184,0.17948295209478404
32,0.530265952247824,0.4277918196597486,0.9717891364413112,0.9605415814170252,0.8434169373750693,0.1466875303905146,0.5105062069181567,0.06339041956927392,0.09668123352338448,0.18132412915516213
33,0.5306440245008592,0.4298988825701681,0.9737967261658703,0.9529137803742233,0.8437137888966865,0.21631921587623465,0.5119878180584727,0.06051733134660956,0.2957278442701095,0.20968601813711737
34,0.5301977670237562,0.43396370138912477,0.9740125987692356,0.9406565160064545,0.8426359666952732,0.17253592526466704,0.5137867915249554,0.05777120649384241,0.0860727346923854,0.2253493274133791
35,0.5294571785151735,0.4384411332639087,0.9741785173817381,0.927507032445081,0.8397789076190166,0.2332842432886862,0.5157673602599911,0.055340246073953624,0.05016337811706042,0.2787202342838464
36,0.5186342660864138,0.4539089492105811,0.9607515982666865,0.9128271513207551,0.8352155496342164,0.29637523649733083,0.5218398011611762,0.053790211626319424,0.21866143114280132,0.260389595700678
37,0.5131137968085664,0.4644702148816686,0.9541354980178804,0.8968949224785804,0.8280317913972269,0.2518864963062014,0.5302818883265016,0.05297609352342237,0.13959061628919803,0.23229323512356057
38,0.5074818922105895,0.4778716212651592,0.9473991004033268,0.8782131278387268,0.8200065078957229,0.33270551375088114,0.5378679265403042,0.052840526835586425,0.22846926064795575,0.37126977793741195
39,0.4999022158637489,0.4920010123380685,0.9382496191894157,0.8590523818467578,0.8148584637738917,0.30339427333376695,0.5461140812849651,0.05332435228254502,0.04393479039593796,0.2614987968251031
40,0.491089533748103,0.5095411906870295,0.927057376563502,0.8380420233017205,0.8052841209336709,0.3428128506798392,0.5551214463528876,0.05449022055933534,0.04782851998964559,0.30127242993059394
41,0.4822395028029757,0.5284787371651529,0.9158837392505111,0.8188057968549737,0.7956515840469006,0.37079235616818224,0.5639460748999064,0.05661816551709043,0.213056927357364,0.34884961399968994
42,0.47510902823983026,0.5454753328323503,0.9071252244752799,0.7999432928089972,0.7887508079066295,0.34629856531322906,0.5712826508917006,0.05970694818114107,0.04622755776664918,0.3536169170745027
43,0.46619760747534034,0.5644261529887075,0.895750241995042,0.7842612137305797,0.7791698542986809,0.37626739064499987,0.5778739584347529,0.06390440704641069,0.08285423646663007,0.37150344590155904
44,0.45792981844173686,0.5827480342594206,0.8850827711404711,0.7724953932993885,0.7689497747660348,0.38512737696508853,0.5844650521337479,0.06921333513585666,0.15784109009805933,0.42089180062781
45,0.4488114259342129,0.6005539947880035,0.8734157107340762,0.7621261029891486,0.7616770933664165,0.37190307091019625,0.5913832918735319,0.07564221798785739,0.16544102877291827,0.39098267378096224
46,0.4412233609727142,0.6165439210388444,0.8637845303225753,0.7546558831595728,0.7555364222892387,0.3601727092769812,0.5981945859668724,0.08309460189095703,0.16720359599301246,0.44457811318708396
47,0.43318137784303223,0.6323897966842045,0.8535472754709323,0.7464381755620239,0.7502643436510744,0.3462290152501505,0.604715494276623,0.09151309524980125,0.06762713244981067,0.39177292453097456
48,0.42542671600088916,0.647960152583997,0.8438824525757892,0.7412569906887155,0.742751298735835,0.36941982244807264,0.6116815612999928,0.10080549954227615,0.14416060922076449,0.44014537215008964
49,0.4187010046615559,0.662117668527663,0.8355990104483402,0.7354555706016973,0.7369515636457866,0.36378272203821543,0.618686585459589,0.11109306025171402,0.11099206424912937,0.4674865315394671
50,0.41305888142946123,0.675126828051128,0.8291151863283955,0.7306153499955401,0.73165143934955,0.37025649372982833,0.6251778453964812,0.12231398670040566,0.12361059877540022,0.48912543842531897
51,0.40985718856643527,0.6866937798939879,0.825962222956232,0.7258050301789798,0.7276873896669276,0.3818716052546982,0.6298578330157346,0.13452251109333654,0.2062380782437444,0.5712115175868918
52,0.4061605581492739,0.6954097550950432,0.8224310365104057,0.7228100179905025,0.7247326739812422,0.35324477624361206,0.6340507683457132,0.14728154426991286,0.14151658248914273,0.49191910851851095
53,0.40372347932517355,0.7070255419515927,0.8208862858032137,0.7185739799273491,0.7237636664010613,0.44087652894233365,0.6373246497602,0.16102443231265623,0.11968113651679284,0.6826133010214592
54,0.4015873376640215,0.719675614592713,0.819264055436726,0.7151646739071023,0.7217409273942418,0.471895649146913,0.6375600977072478,0.17671204532582624,0.09466939079654725,0.7522630543584904
55,0.4001539429321689,0.730251487429089,0.8187933155330482,0.7130427771493519,0.7199545692320095,0.46970330869439103,0.6355914300504616,0.19399149261996954,0.13265281016110034,0.7440811382732017
56,0.39640731811494223,0.7414141690670841,0.8152124299636613,0.7128015902024415,0.7163471488067175,0.4560990046637758,0.6332878052439326,0.21246004201646984,0.2638413415575255,0.6824390230975581
57,0.39330628193403144,0.7507345692110836,0.8125625746423147,0.7137978599164116,0.7131724311428649,0.431476917530181,0.6313314802214363,0.23177959373008594,0.2930120346341873,0.6537110867397008
58,0.3903198321031554,0.7583586507100057,0.810352110546706,0.718145528173743,0.7131798292358348,0.3915634335171622,0.6292446423644222,0.251893258975166,0.23243315674997944,0.5907648013892897
59,0.3888064449402312,0.7665420993346714,0.8096988856560052,0.7128302575262865,0.7134309537796651,0.3927154257260051,0.626100587450366,0.2730482523554251,0.3521357959453478,0.6340168015345816
60,0.3908097160343177,0.7678792853367918,0.8137994456507298,0.7129966653342589,0.7143582388755335,0.36309055618430514,0.6204696357680599,0.2949912137605719,0.1712973222930132,0.5958956307599601
61,0.39895983791706435,0.7622023234777037,0.8249554971199995,0.7168204884297549,0.7144378828990223,0.39183512504292717,0.6110016084119333,0.317264964904601,0.661245018458653,0.7010574393004504
62,0.4019995714015777,0.7595945032135605,0.8306553494241834,0.7180331537358748,0.7157973844906431,0.27136275886250405,0.6023851623090897,0.3397549490612615,0.12819363981453544,0.4524363910683298
63,0.4063997965318952,0.7558701338744711,0.8376644550500704,0.7213331182364635,0.7168290324021248,0.24477124091863056,0.5955485423878785,0.3624683466449249,0.3173799459109898,0.3751735756785255
64,0.41162926290590496,0.7535080665276185,0.8452724988316933,0.7218017366414169,0.7186762869242893,0.19054988148913415,0.587075893832932,0.3850721677943487,0.07081042641919236,0.28753408900450916
65,0.4198076507394143,0.7522464285762928,0.8563332299306451,0.7206997038079495,0.7246256832965322,0.2402980134348903,0.5777161031508413,0.40761286191030266,0.08000465213226972,0.40467600511486945
66,0.4291111668840681,0.7486376256316165,0.8689960568793614,0.71605424464144,0.7310826791800035,0.21974913012108718,0.5677441022280156,0.42938675861234127,0.08163514616720853,0.16323668537423786
67,0.44037975716636907,0.7451222164468654,0.8840773196407402,0.7106469283979177,0.7394736101686404,0.26510520698624124,0.5571645695389665,0.45031725895034697,0.15969352678064277,0.15764589949526486
68,0.4559396389812664,0.7427910248312829,0.904452176229605,0.7054524269480013,0.7534187138189826,0.35581710712831127,0.5442568762358365,0.47050293344462246,0.19769256113611766,0.22898329289476893
69,0.47365551755805424,0.7385953374559573,0.9275021200025471,0.6989844534300431,0.7695813926373649,0.42012113587011324,0.5291389317483176,0.48948093424787625,0.19665108139572055,0.14432395048744473
70,0.4882644810687352,0.7376462506851684,0.9468794259779891,0.6873403583573011,0.788187241892709,0.4121352623242796,0.5154649777007511,0.5071784220899198,0.3958983574891157,0.2727969828773374
71,0.5071702611378165,0.730834420163088,0.9716244921653091,0.6815553833899612,0.8075318211365533,0.5182925556143227,0.5024645020285747,0.5233295567866529,0.5011550002716676,0.35827338159408095
72,0.5320071312403213,0.7146802175821247,0.9969137000387955,0.6769352346900687,0.8287878760931933,0.660228967273905,0.4870283685424635,0.5378901727600739,0.12041512523105703,0.4461673785613079
73,0.5578452709583067,0.6978309920090112,0.9650458574096487,0.6677584693423028,0.8487110774215829,0.7238229360703269,0.4695277263586317,0.5508783918624114,0.28283194781118076,0.5666759901049632
74,0.5828866941135006,0.67136231722031,0.9350390558073822,0.6618184935187988,0.8644599555150155,0.8228515962795584,0.4526726712402732,0.5618614653542988,0.9032741962964194,0.7701887526456365
75,0.6038377525473179,0.6522516664362019,0.9107096781868719,0.6604912137929604,0.8753980570289485,0.6888555826462958,0.43888734579043953,0.5717656056643764,0.07490055821306865,0.620026058620367
76,0.625282272902484,0.6270932204953508,0.8861292562755538,0.6575378606776789,0.8885256252621774,0.7471218444990984,0.42641882448939017,0.580599060809314,0.04175078255373732,0.7025668259734561
77,0.6462966240096142,0.6011516605221691,0.8623514114929196,0.6486364539309433,0.9059440589783176,0.7862765812649886,0.414477747846587,0.5885218401003779,0.04099138893725405,0.7740670755373658
78,0.6671059230964421,0.5701041688576364,0.838769049929624,0.6482884339195827,0.9175493015042677,0.8201323202189296,0.4039328291415211,0.595214967305513,0.74762201314675,0.912739869762336
79,0.6859974275023196,0.5472185025381695,0.8181627738320763,0.6418668863092404,0.9250366603133293,0.6993556476946161,0.3933533975637659,0.6013841271285573,0.2316020375048796,0.702497118784021
80,0.7040475137570508,0.5242795649741199,0.7980685261408553,0.632851252142787,0.9366205095227708,0.6667773862726943,0.38250457368999513,0.606792019911653,0.6013596127771736,0.6679514071395688
81,0.7199466828751835,0.5067895969083852,0.7810074541906501,0.6253784652429796,0.9398561881491669,0.5783432873335638,0.37179288553281825,0.6119912570256776,0.5119673925796896,0.6103886783848919
82,0.7339777819802825,0.49063690757101286,0.7656119400479865,0.6161865980261031,0.9478846483178249,0.48779700510972207,0.36086279367766455,0.6166921798074667,0.5793245476902495,0.4537327831434038
83,0.7468923873913635,0.47906380103308605,0.7510799163187806,0.6068364053290615,0.9553673947147165,0.40149841457982804,0.34969209832065407,0.6211307182549548,0.6690708323930779,0.38126095375328534
84,0.7559872204343302,0.4732089828864485,0.7409272774108406,0.5971695232213473,0.9608893879214049,0.2863095078248582,0.33882721381603326,0.6253966421654255,0.31441263979787354,0.24077285462643075
85,0.7653308776570074,0.47063838324611357,0.7305009110223657,0.5908711809580458,0.963787516882561,0.2361310522165186,0.32741446042568745,0.6294598567322109,0.45840249869634314,0.09703778806340047
86,0.7719004432519184,0.4710845127437567,0.7223877202515246,0.5839283027514243,0.9699878652440338,0.16831330298849057,0.31608019501272694,0.6333469705633145,0.30494655120770153,0.07273569013955175
87,0.7745994178998988,0.47565407117826936,0.7187122789137217,0.5761872364619103,0.9723297458911906,0.1336415617624344,0.3074994231740336,0.6369997469655204,0.11125358047954118,0.08824649127887528
88,0.7801761507269523,0.480904917524838,0.7116154989365262,0.5689379280462875,0.9758066407799776,0.19795174622721884,0.2988687680755783,0.6404659281836721,0.05606079244956965,0.14003705353064963
89,0.7848682110310942,0.4882217640200416,0.7053095721921991,0.5630768537553438,0.9790558642134816,0.2502315233552359,0.2886124242413084,0.6436772008457644,0.026370576951363304,0.2226653438151422
90,0.7882385818851754,0.4972659409871353,0.7000776562513888,0.5592344829380704,0.9851857835882742,0.27376998698982963,0.27900406846411147,0.6466218644998522,0.031145498546625263,0.2793935748041854
91,0.7882585999696514,0.5080406838543846,0.6986865905262842,0.5585462359683747,0.9936455379692565,0.2902049151624211,0.2720352912649578,0.6493946044104651,0.09464947148824232,0.33803626858349367
92,0.7936668892645251,0.5157425440936932,0.6908020157238244,0.5588180059755499,0.9966436671258078,0.37014977930146936,0.26413110570663134,0.6517880330550428,0.3905693647260245,0.37237763886839004
93,0.7922401352260285,0.5250429326497992,0.6908236794443501,0.5599095048125114,0.998272439990212,0.29212207914546906,0.2575095491802036,0.653817773955549,0.10112343878455321,0.2806900781685746
94,0.7854709941054401,0.5353080981145273,0.6969035388933004,0.5621330306615189,0.9991138385248609,0.2828353722851798,0.2580571279864624,0.655496149904069,0.04894499011488002,0.20887105344630957
95,0.7829411596585281,0.5442714294799506,0.6978840133976018,0.564797452243011,0.999999712843144,0.3132632543131139,0.2600028918681326,0.6567267803802043,0.3517959223215102,0.284417924793664
96,0.7794264411015384,0.5519143372729675,0.7002993908026612,0.5657551180676703,0.9987137404578178,0.26348216070420544,0.2614328220315444,0.6574966581657439,0.02852869397224136,0.21339820105555363
97,0.7763488198707712,0.5620504224312161,0.7020640919900231,0.5632865251458647,0.9967061968284575,0.30304963971637217,0.26368167086915245,0.6578213160107267,0.1256838180478162,0.26076861761044523
98,0.771482787259839,0.5726447334916225,0.7056714837586436,0.5607807613146573,0.996202006628161,0.30198815624978886,0.267118828775065,0.6576355267705754,0.17858563911478845,0.23266967819736883
99,0.7685296484206693,0.5829412242508236,0.7071053671902,0.5581369066637013,0.9943211546253653,0.2824261173376265,0.2711097346265019,0.6571085485475592,0.10444527449144685,0.20479777599541532
100,0.7640383149173315,0.5963281591091721,0.7109594705055224,0.553853241434514,0.9902012915896777,0.28985764013088877,0.27469268598971064,0.6562905929840507,0.25978156655069545,0.2581218669035145
101,0.7593541032945842,0.6080581064014298,0.7149613968550252,0.5504501849126069,0.987681346021263,0.24431247789912064,0.27883079675270644,0.655250845694286,0.09484914709815177,0.18292761425058754
