Frame,Center of Mass distance,Symmetry,Grounding,Arm fold,Leg fold,Kinetic Energy,Potential energy,Bone length coherence,Torque,Center velocity
1,0.2683930218151592,0.4041743377513395,0.6702127018082663,0.9303776177762729,0.775997917619123,0.014013879715100081,0.6873548635440491,0.33510405271433297,0.04774501924298033,0.03870545397773266
2,0.27137034289823986,0.4027443415828994,0.6767123192567562,0.9291746575582949,0.7810505490615848,0.014013879715100081,0.6873548635440491,0.3496824554503308,0.04774501924298033,0.03870545397773266
3,0.27144500870991495,0.40215320887884765,0.6774496663870211,0.9284829875112417,0.7820451014723377,0.0009311249338264868,0.6861090331227222,0.3587983698903872,0.004273265957686599,0.003871033553383494
4,0.27078902162102597,0.4051406787525264,0.6766053275001852,0.929306810622763,0.7804483861827117,0.010275505311483883,0.6861268922581156,0.3653344096862421,0.019518523282775917,0.01565351137578013
5,0.2686203373482075,0.4088298025987788,0.6718997984229788,0.9302683893836117,0.7774463979451762,0.00820520338263642,0.6873450131574059,0.3743303667914416,0.014642208854191345,0.011698667942791917
6,0.2658740347042101,0.4153720656605932,0.6651340192155298,0.9290787656952255,0.7750805294344267,0.009502749843295544,0.6893448133872042,0.3861773434976024,0.0033797320551013045,0.012557901765424075
7,0.2616949207325564,0.42127544831897673,0.6553756331419996,0.9300499734997679,0.771909933343643,0.013313832535237078,0.6922972214208492,0.39560534837145206,0.007765790122001944,0.023877747023484854
8,0.25393243594248965,0.4312761341548293,0.6378073758917175,0.92990095831232,0.7663718147697521,0.02764838919641816,0.6981807993708095,0.40633906076659343,0.03291346215975166,0.03128905330831585
9,0.24760698420394578,0.4431307900544632,0.6227004560955767,0.9294800731866931,0.7569451347089897,0.024139631335855838,0.7043621393406828,0.4205485828064384,0.006968190677761452,0.029469455999935123
10,0.24081222036898295,0.45390230684387994,0.6063085811145948,0.9313895540888328,0.7468293853789001,0.025999572030687118,0.7100976031618276,0.43348488636576,0.01748874889694229,0.04007111486572697
11,0.23357291625897958,0.4639722424717493,0.5890096479412006,0.9322993342671959,0.7358490636748026,0.025254717322116097,0.7167997641024809,0.448367439368845,0.017716883549557253,0.029747324607357958
12,0.22669041693624445,0.47525105624692765,0.5710281811482981,0.9318025629379649,0.7223350982915554,0.025219607668700406,0.723306402512368,0.46525576614446934,0.010632515113592181,0.021579469574704246
13,0.21930187408243584,0.48523152333119285,0.5525407434868769,0.9328376192893498,0.7076959546297517,0.025053568941220145,0.7301247529245845,0.4810531132252611,0.014979937552051884,0.03178512856628642
14,0.21267567391367756,0.4964615609485118,0.5357108874728377,0.9336443210142482,0.6945154154277925,0.0243053117172039,0.7364945278519245,0.4979539870339926,0.01734388332021099,0.029003699539957548
15,0.20592401225765233,0.5078074119903672,0.5184562267504379,0.933831353722751,0.6820570963337617,0.024387315354040418,0.74208830506065,0.5154614615089942,0.008012081643744496,0.027798043981916577
16,0.198848023964909,0.5205611483500531,0.5011425360933797,0.9340075907243078,0.6707607894536989,0.027996933847329826,0.74758419578582,0.5337018872609869,0.027408445683932407,0.0393051084359084
17,0.19270772847782988,0.5314916134906413,0.48595708540202026,0.9345364799400465,0.6610517217563305,0.023993413861512877,0.7525905023460999,0.5527604227418523,0.018510713250211766,0.03565925630531907
18,0.18704987737752,0.5433614232986357,0.4727712737472753,0.9327992968425266,0.6535484396846992,0.023836544934209874,0.7568843200586326,0.5720143203318658,0.04207415866109622,0.021198332685549576
19,0.1831848681456446,0.5504811632542737,0.4631778552590019,0.9329033401955069,0.6470248064393612,0.012088346360497127,0.760201051001963,0.5907526939992767,0.015061816084160067,0.014705255109798398
20,0.17913258870987428,0.5567051539334827,0.4533646556747175,0.9335482547831183,0.6395187285973968,0.01234468838109549,0.7635900408737482,0.6085559193890593,0.026044447122068812,0.017670937585929206
21,0.17626796216054127,0.562470477780297,0.44672853150232594,0.9338002038742308,0.6364797898086363,0.008382811888912952,0.7662311351595772,0.6255555855563105,0.02761462988005871,0.019149632392663807
22,0.17507517333837955,0.5667780505538442,0.44474417700236196,0.9335380188687237,0.6370099822159245,0.004026090996120014,0.7668990451605857,0.641761781836032,0.020469096379810054,0.010053165710737109
23,0.17634193857992222,0.5657098621342165,0.4485168222907407,0.9347957287813811,0.639615732218717,0.0043242233152212504,0.766637169466135,0.6559735174436961,0.021589993992508907,0.0028628748499112495
24,0.17738035453511353,0.5642704569052209,0.45148307650742026,0.935579622298512,0.6403009062655931,0.0,0.7660786065904517,0.6688602760253881,0.0063184693479941476,0.0028146525464722645
25,0.17900823560364917,0.563006270776992,0.45538801209579627,0.9351941801861977,0.6387775799032107,0.003365803857529675,0.7650534005215954,0.6804497499058995,0.013066083971112613,0.01048088048795421
26,0.18003777688255113,0.5607489669547959,0.4577618587539213,0.935540618661154,0.6329825842946011,0.005563772929909834,0.7644031990403161,0.6904514835920513,0.009142248628179831,0.015003603651742853
27,0.18404016294715456,0.5580394475053699,0.46691518799718124,0.9334507694824073,0.6293816894540064,0.017956653645844693,0.7625529295727946,0.6992457681288876,0.03919629557106831,0.03927939472735663
28,0.18728413374952074,0.5528130420166248,0.4749690847073949,0.9343891825725403,0.6297583736809118,0.012781001734685653,0.7599303675293897,0.7060844523656189,0.011470239909231753,0.018374459231923823
29,0.19123799137344863,0.5461601267687275,0.4856856531131789,0.9340099579276251,0.6361742280264625,0.013067999485401579,0.7581618422644364,0.7107516525071564,0.020399680174627,0.022347579327303004
30,0.19534112208709764,0.5414718601731031,0.4973451193145637,0.933996782458565,0.6457147342130202,0.011791203550113273,0.7548136016640903,0.7140301028680595,0.0032210399617289254,0.01325081262075157
31,0.20147535845196485,0.5338100336248928,0.5140268734389637,0.9334587830013795,0.6595178350260291,0.0202524383396048,0.7492059958038155,0.7160383075031082,0.027688399500114345,0.020800901104966855
32,0.20702560970300984,0.527066255644633,0.5304371952745249,0.933179710705574,0.6781250313131294,0.018003540466762644,0.7431680931815084,0.7168925603643894,0.026060441144569582,0.01499672118337743
33,0.21201623813261558,0.521705170792399,0.545166218078245,0.9320972601089241,0.6980855522523163,0.0150638503061906,0.7377636323742895,0.7166937200177455,0.016849764162482374,0.011842983797220194
34,0.21645313781668332,0.5155773663331088,0.557972024528613,0.9325603656550915,0.7115677950481624,0.013187129525117948,0.7327674204403141,0.7156407182396101,0.016924215526518124,0.00849983641756798
35,0.22073930403869219,0.5088065855823914,0.5692151188694462,0.9340920028972659,0.7203764624537357,0.013398176384133613,0.7285168873619882,0.7138684429663851,0.0029815085746368033,0.0071995360819494
36,0.2261266035085821,0.5015092822983217,0.5825005435389289,0.9342801115777726,0.7256585981227525,0.019742006266464118,0.7246958169374359,0.7113001451011771,0.03458952925655757,0.03395911560693913
37,0.2297182432878468,0.49706237648712115,0.5913613583738283,0.9330935967178261,0.7289615183577055,0.012898514337134915,0.721809045813688,0.7076565730884041,0.046819854438617636,0.027395227103637676
38,0.2316540076849399,0.4936817490717848,0.5969259838215372,0.9336471929996292,0.732469269390985,0.004546639916686073,0.72024612115282,0.7030726454008083,0.013379879391229591,0.0032109040491759794
39,0.23388976277637788,0.4885035681249948,0.6040116841927239,0.9337136779895945,0.7414144662937635,0.005048427615946473,0.7189325605751031,0.6979734619861366,0.006325516906209012,0.011991489745741562
40,0.2372124858721342,0.483504616288074,0.6129494487638798,0.933785493343317,0.7486521813649849,0.007944298933689389,0.7163750174735257,0.6923949301381114,0.00713305412927725,0.008581345968663646
41,0.24158045928647875,0.4767931147940519,0.6239474634652757,0.9335143361285496,0.7565696744450456,0.012567343562902223,0.7124961017187723,0.6863608287793646,0.010050990584504415,0.01622043527711788
42,0.24621182205790662,0.46933392811964475,0.6361650787809912,0.9334595553631513,0.7658460703932084,0.015257396370998426,0.7084404559217988,0.6794815303462922,0.008539927210229961,0.02282684731636204
43,0.25203904959644574,0.45994622752942704,0.6505193669102142,0.9340229975599019,0.7758935114441498,0.019477160134645264,0.703653972064575,0.6718162741828622,0.014164541651930828,0.020593616094424935
44,0.2576228650989314,0.4512252994697713,0.6647450541103578,0.9340244329980492,0.7874767305942406,0.01911821889483686,0.698002403850066,0.6634604693251525,0.02134742944564623,0.022988035846172046
45,0.2626051663186078,0.44348759663219306,0.6772283041320457,0.9341489306257706,0.7965956084855614,0.015194939560077177,0.6924443617138958,0.6547394979938106,0.005639116234983666,0.017799495538981008
46,0.26792488522110486,0.43438679566417865,0.6903118675071079,0.9340344107584881,0.8044830395094277,0.018686620382821623,0.6875548002510729,0.6454725088720057,0.012130944031852362,0.033019166633932846
47,0.2736767079789617,0.4258910174152479,0.7037348530064703,0.9339197379387753,0.8100214550341516,0.019657906506730122,0.6826058167186444,0.6359492168040218,0.042715598920164334,0.028684945194373482
48,0.27713132599305884,0.4206609346980957,0.7120259235613013,0.9340564814029223,0.8116637655818641,0.010806394459049257,0.6782136274167642,0.6260761150670813,0.018561514437807777,0.01740593613987532
49,0.28031413694383644,0.41541491751115994,0.7195432803296902,0.9339896184919944,0.8141360781108932,0.00889529132962761,0.6751582188665721,0.6155900724704899,0.024724899718206968,0.012261493008419052
50,0.2815178072114287,0.4130958186397798,0.7229838822356046,0.9334119182403555,0.8135076702810887,0.003948659810092702,0.673174974002767,0.6046152238218009,0.013378034649464023,0.0
51,0.2819239197537763,0.40932890077943407,0.724219821492555,0.9288261669351278,0.8154686168536024,0.007106419911535395,0.6723016339114399,0.5942209757259217,0.08642875079294923,0.0065745725240127315
52,0.28635413112972424,0.4070910360353452,0.7318420618055665,0.9220714277075914,0.792319736538768,0.04187535109771192,0.6711187480967167,0.5841075748084108,0.12084868516986594,0.029164888275888666
53,0.29568269264764063,0.40495062776646124,0.7404346066695535,0.9151133141999881,0.7152882589752501,0.07912219648367275,0.6690157959058094,0.5738428578069303,0.14662519301009405,0.10543518707608757
54,0.31131680059871153,0.3926666586662749,0.7600768174277668,0.9064196054306086,0.6213538630424164,0.12247230475148853,0.6655267200285189,0.5620515280621468,0.0028429323785187873,0.17020136991747645
55,0.32962467059939354,0.36810845021694805,0.7891026795850131,0.8990665543952711,0.5685191124471873,0.12901203363372696,0.6603804463080633,0.548392247953232,0.0720574933126794,0.17396563337552917
56,0.3500966368380004,0.35004992994026185,0.8242608032580857,0.8946132960372684,0.5523021824105886,0.11449799635722097,0.6531646719988692,0.5351056854393305,0.11902343306204992,0.11878905010950644
57,0.3621334267167232,0.3399193780418607,0.8458641781847902,0.890990879933427,0.5506795385039883,0.09054854866138255,0.645676235023076,0.5226300765640128,0.0024556961683350974,0.06462804178876257
58,0.37660902228816745,0.33547534917744787,0.8724350275237532,0.8849244954790007,0.5553390528665879,0.09804267482263748,0.636221831767604,0.5138565279830382,0.0019018262108313642,0.05094155818549483
59,0.38960008368469035,0.3294763308774734,0.8938228377783486,0.885292903832529,0.5618037442337311,0.10449630238362705,0.626232748847376,0.5085980656218531,0.01505301547460636,0.048673556430935856
60,0.3882875344353731,0.3360909054797823,0.8846141679713428,0.8854867747347228,0.5655979571392462,0.13059911331616061,0.6246742996422497,0.507415016555614,0.057032060341103766,0.13953325106261613
61,0.39034142867898264,0.32578461863701225,0.8829181114558377,0.8890811706875928,0.5553390641629273,0.15156541150257072,0.6322085503636428,0.5089964829048306,0.00772012503131924,0.16690708246566333
62,0.3780482236574149,0.33529074345898513,0.8468297392588748,0.8916185738206029,0.5415924805145526,0.17584366783262437,0.6469834423217357,0.5132851859545854,0.18783598138410154,0.20682930637806435
63,0.357877770687203,0.32862872371461094,0.7937860724367223,0.9025921942162015,0.5219626342460124,0.25215756650200977,0.669661234652681,0.5210693966391932,0.14277085433253311,0.4240326014481249
64,0.34380351317344054,0.32639092913129836,0.753260441133468,0.912472563285305,0.510477648433533,0.20501197529334877,0.6932321535226952,0.5314853227212528,0.04703590945749072,0.284270070505442
65,0.3263879935404536,0.3314288194466537,0.7037369612184212,0.9217201463171969,0.49439553332019864,0.19734485446363015,0.7146921482104329,0.5451292974747612,0.02915467458057351,0.26419589410479827
66,0.3035844957535788,0.345179099989705,0.6415241535633641,0.9279436272215514,0.47382403360860764,0.19989119183242587,0.7389385092079643,0.5625434399446595,0.026361405674710407,0.26646322465101746
67,0.2730977446901049,0.37412971733093037,0.5626459304265354,0.9296684419721326,0.4482340708872571,0.20847396019838066,0.76533600659722,0.5842858455715656,0.10738792568307652,0.3037953424721499
68,0.24643451314884404,0.39925622905069713,0.4921041044015105,0.925863575084577,0.42642576998965553,0.18378517232118669,0.7903831698797696,0.6108752036969867,0.014928903891002437,0.233205990894282
69,0.2218718745871934,0.4258629254562701,0.42817679337636627,0.9170674051368511,0.41584188025857227,0.1715333358474373,0.8115977894376147,0.6420231798776347,0.020873633150449735,0.20194601366394194
70,0.19891518399971403,0.45376336416415486,0.3680880092631037,0.9057522832402197,0.4086049022783204,0.15312588278575767,0.8280787112204603,0.6766492027486797,0.0399095809163059,0.17979304260142379
71,0.17166304277842814,0.48630286598956646,0.2992986344233051,0.8951386315156121,0.3988078586219738,0.16626498229859143,0.842560273253758,0.7129766468200773,0.28365175920168,0.20904971190638466
72,0.1642779632871309,0.49144377100651965,0.2782212583786633,0.8879854958324467,0.3933434538969431,0.1032799975096812,0.8484271138777344,0.7475552511651409,0.2025325215918592,0.06363942624464186
73,0.14719128477649443,0.5128468024420312,0.24243488754384776,0.8803371864762706,0.4062025922701497,0.15302842223595495,0.8483459850832634,0.7792217258932351,0.08182213802994662,0.163874030810568
74,0.12768477227695507,0.54324003205554,0.20448127482222117,0.871174819972218,0.42040410768850006,0.18126539700881653,0.8547434521563262,0.8067479170826332,0.0037616838224832864,0.16511198080967712
75,0.11613766402340794,0.568463105590785,0.1904569218635091,0.857970234753427,0.43861133819140935,0.18605136375696993,0.8619336453674596,0.8284061521669985,0.02732937130695084,0.14444278570695868
76,0.10397517503738575,0.601310212385156,0.1798030727633016,0.8388729546072542,0.46993749738226953,0.20623347415956583,0.8665415084933458,0.8438753356082541,0.0732642160118436,0.18347014703053516
77,0.0932007084871825,0.6429595732100655,0.17511230116976179,0.8129365850638253,0.4980430735712459,0.2449214706241047,0.8708003119304839,0.8543136868152846,0.014425723878603827,0.24073725058624035
78,0.08474676760876611,0.6954657969875712,0.17730958507689243,0.7748370616617494,0.5144955221089116,0.27144738312858896,0.8736584623502651,0.8619123081157881,0.07624720987912116,0.28251281485314755
79,0.08372691451149752,0.7509240383083967,0.20117717964020843,0.727028622784469,0.541536248999079,0.31475313896218177,0.8701988486804855,0.8689548426184033,0.21701917953324906,0.4127406784980004
80,0.0779669198146991,0.8052296622112932,0.21036002385079897,0.6672548302598028,0.5618484552094463,0.2712260660047054,0.8646786873222292,0.8727865837144223,0.19704722701197463,0.3141981100755717
81,0.06918412851113273,0.8532635959048569,0.21067467448465943,0.5950096459351857,0.5807462304047568,0.2355961553795082,0.8653387923377811,0.8733951474981628,0.1722550434790766,0.25504827909163913
82,0.05750389530307801,0.8967592606861409,0.20002609591433176,0.5130806418894402,0.5888690512305684,0.20671734375863496,0.8717310479457852,0.870814585869546,0.10970175085081517,0.21441391859219294
83,0.052368929885874355,0.9276327473982664,0.19982476167290272,0.4246655939572848,0.5831291713406794,0.18173087666536406,0.8793639080979969,0.8664153435809677,0.18305975716935732,0.17641851676168877
84,0.045839568024760885,0.9491110083221804,0.19282918736266966,0.3366604015383205,0.5775648028764522,0.14209881009247471,0.8866849161969078,0.8604881658160592,0.11522990041257616,0.10895756927340648
85,0.04498432531296974,0.962301921365712,0.19675942149447184,0.2557035265643694,0.5749527905309786,0.11921622697143788,0.8924089178330133,0.8537760731210343,0.03485502107397723,0.08564448334977273
86,0.047819841556813465,0.9670994190443494,0.20808631726040328,0.18536424231980478,0.5700208361589245,0.11018747746942176,0.8941958445083977,0.847181757468193,0.006197089919924939,0.07781819694276701
87,0.05714254722159784,0.960975245478598,0.23403840639141005,0.12326998384977486,0.5685017280496949,0.11304578134937841,0.8915777963854227,0.8416370117418264,0.028949804808402056,0.10449150353988244
88,0.0743500323687694,0.9445533391162997,0.2770121988241035,0.0671566210100528,0.5731798810547135,0.12243059042831779,0.8806835660027148,0.8378416373849134,0.06864373786958133,0.14298821784718763
89,0.09976013785100601,0.9133836412997297,0.33933516055366053,0.01988181423630209,0.5923371750589572,0.14787253682706591,0.8605447399139154,0.8361291987139798,0.05115951913648393,0.1945927324931181
90,0.12376852912800829,0.8889249858703645,0.3996569020876362,0.02920928098611649,0.6174093714257798,0.14338260395474126,0.8354669774995858,0.8377699013307066,0.2261028183970943,0.18341206668106413
91,0.16163568325003377,0.8373877954921278,0.4901692928824209,0.039516088782717576,0.6477460889774039,0.206121455206048,0.8055086806721045,0.8412432326879308,0.005337308058406851,0.3246544333197115
92,0.2018904264257085,0.7832037410981822,0.5851194698364911,0.04993124146816905,0.6859413521630827,0.21412313108300093,0.7690459553215845,0.8474961440394249,0.02458857869680252,0.33574619116987003
93,0.24715211001111403,0.7262727923165836,0.6888898785453814,0.06129417954580821,0.7175911154941778,0.2376589590844903,0.7275398781691126,0.8566616011371815,0.013019183238431998,0.38733435848278597
94,0.29820844710848804,0.6687355010340764,0.8038427705014819,0.07019720919863719,0.7641063854246966,0.25696191774065796,0.6806234967709164,0.8686825975075902,0.03454237593406364,0.42596293748572
95,0.35049811575163,0.6154075540107709,0.9177584221771234,0.07761719034036427,0.8088894011356113,0.25128724732899643,0.6289107983431727,0.8833688562436628,0.02980987887064391,0.399233133338934
96,0.4066349744955068,0.5642476529261377,0.9642634696296714,0.0819998059049246,0.8450926437857883,0.27608205978869754,0.5739370875224391,0.900839961842216,0.0033974490345544148,0.46769834343447475
97,0.46491647811127096,0.5126971220408795,0.8466052146859705,0.08308406235081685,0.869762620897187,0.2843851234885504,0.5167142760897561,0.920170752043209,0.23144607964675332,0.4707312170074855
98,0.5397004780283408,0.4407583419120209,0.7033084671391454,0.07980326826691381,0.8748613153918673,0.3644244143072727,0.45255295166175064,0.9398733218607175,0.017357457403209067,0.5779402776285674
99,0.6171590203702497,0.37505279913603234,0.5652764518898352,0.07340712381630218,0.8439054903849088,0.39224556961353696,0.38097395397881406,0.9587725112272041,0.13004231623257836,0.5963914140754585
100,0.7070437911004268,0.2948044181169354,0.4181000672980603,0.06474661258315038,0.7832982986587929,0.4756279045407547,0.30499626133498065,0.9740028244637514,0.22740344411786556,0.669130146910105
