Frame,Center of Mass distance,Symmetry,Grounding,Arm fold,Leg fold,Kinetic Energy,Potential energy,Bone length coherence,Torque,Center velocity
1,0.5888576298929133,0.08095188176964277,0.9864534624253171,0.5817835478415413,0.9873835957499824,0.018696670897526708,0.47818261600655887,0.2417032735239604,0.010517978324471662,0.018810224397815323
2,0.5915297028362899,0.07776226988741604,0.990118326900204,0.5816069306089616,0.9892424072551117,0.018696670897526708,0.47818261600655887,0.23265442988121157,0.010517978324471662,0.018810224397815323
3,0.593607963522722,0.07436950432603856,0.9927718357350578,0.5817260276210618,0.9900703528231691,0.012545479460597307,0.4767965816148584,0.22294977914284464,0.0078544470593005,0.016879590596528885
4,0.5950882963822259,0.07066463884187196,0.9950501008962946,0.5817536030810223,0.9919097139694119,0.008732154447292235,0.47608439021790744,0.21303036645570161,0.002800589827107775,0.018755490316422346
5,0.5968622674386955,0.06565796993920257,0.9974563740594913,0.5813763550010853,0.9934897755072952,0.011887539073291481,0.47571886867958396,0.2028498902672032,0.012408886520301785,0.02773197450252384
6,0.5974108424397315,0.06241240045941617,0.998290967747361,0.5820323832178375,0.9947886069987237,0.005361956537282233,0.4756143751409592,0.19196734498030268,0.0058087892504758475,0.006387002405525256
7,0.5981890952343042,0.0599554667274878,0.9995192900188754,0.5814403436493449,0.9959597011568401,0.0013509695265051726,0.47542015288929274,0.18174516975339583,0.005173459904189467,0.012703101848113947
8,0.5983522448193459,0.058008480874916814,0.9999841855061381,0.5809110511952897,0.997702561684672,0.0,0.47509102571124795,0.17263994061680657,0.0037271382068116946,0.011038737192867906
9,0.5981929001699035,0.05591026590249481,0.9999998976796642,0.5809686723778342,0.9986994311042953,0.001734780815044301,0.4753545123294908,0.16349936444341834,0.00158963964728968,0.01373684964895338
10,0.5976450281897372,0.05389323098682511,0.9994666080252894,0.5811805983114646,0.9991736550853055,0.004273318478483676,0.4759735990648108,0.1546340998758413,0.002054020075661054,0.014936694833554422
11,0.597579696148291,0.05073471662943326,0.9995826008357299,0.5813527538609203,0.9996308833385001,0.010888688341046886,0.4763760569410844,0.14551753988568872,0.010040271816698665,0.027032172192516628
12,0.5968648863017519,0.05111754153139753,0.9988043861234529,0.5808025757867807,0.9999117213867503,0.0018168360710254898,0.47719157816690244,0.13740205583739562,0.00023358848729399204,0.0035546965366253956
13,0.5957016086081771,0.05057849638757006,0.997303411428991,0.5810003868350382,0.9999998132238845,0.009628211693410308,0.47797299555460165,0.12983027190516125,0.007034725926289628,0.019297478814198455
14,0.5944342168480706,0.049610856354061206,0.995742129715555,0.582121794807916,0.9986716234350339,0.01616652061914052,0.47958364343572796,0.12187507900356584,0.005741695869391331,0.01309489929099533
15,0.5928411860629574,0.05166098243593736,0.993728660890502,0.5813228353512581,0.9975103821752923,0.005234312737964129,0.4817168855666801,0.11445306769448557,0.00028352032420455507,0.00852617793812085
16,0.5910061812532222,0.05235601735159201,0.9913822326235274,0.5813845545869918,0.9966990440978843,0.012369353230245307,0.48313281868103086,0.10760817067478572,0.01334886752352547,0.020622368693148114
17,0.589925540379922,0.05296303581022092,0.9900212811225456,0.5818802650999051,0.995903113201821,0.006628874024178437,0.48475195221850415,0.10064397622916424,0.00018544663245485883,0.013428740553537145
18,0.587739424158325,0.0561143241480875,0.987276734105793,0.5815234911922935,0.9954255889800897,0.012549852204906875,0.48633196989714755,0.09467211738823009,0.010668781996865903,0.014735034530608499
19,0.5872424933372659,0.057468542768809715,0.9864499965046868,0.5808315939635771,0.995457556581322,0.004136560627090657,0.48729619599439933,0.08944916694557384,0.0006162224938508881,0.00607116524105739
20,0.5853044946734616,0.05978553686047742,0.9839496813617099,0.5807063863677258,0.99481014258953,0.011162521724886885,0.4882324400549881,0.08479095028779329,0.008002075253310963,0.01649249825461372
21,0.5838068780344119,0.0624695356625574,0.9819142617059968,0.5808583358064799,0.9945540467339443,0.007439076639713143,0.4895797379161377,0.08080420709464198,0.0017099036345105355,0.017856967639488446
22,0.5829558597872947,0.06269432158875367,0.9805808065086838,0.5805572055612455,0.9942792411272876,0.009188203006467463,0.49061597682385394,0.0775767883432748,0.00604003998207861,0.004646427370796891
23,0.582570065143153,0.06209174639560564,0.9798571222809969,0.5810726317091199,0.9948534332167479,0.006785481701967774,0.4912674086011299,0.07498284056577947,0.0017012026192208553,0.008257602091457482
24,0.5817521828703556,0.06264704443611084,0.9785583262899908,0.5807728559061565,0.9932807966323636,0.011386603336487664,0.49156817212775067,0.07279194674549103,0.0065968475358334005,0.0217035145528568
25,0.5814539730469515,0.06413444506542222,0.977602656441423,0.5805795778658123,0.9931928145244437,0.012158161279524932,0.4918922148864676,0.07245838142306199,0.0006820374048812112,0.0194155361448558
26,0.580612205217081,0.06814061876510569,0.9760739543819156,0.577438269127168,0.9914078870528842,0.024537020967116525,0.4923181152627844,0.07443981062263165,0.028417053245160254,0.02380566075571561
27,0.5779031124736237,0.07839817124162325,0.9715074884202998,0.5725909680779533,0.9765708666876008,0.07275977210785992,0.49350556233110837,0.08160658001015048,0.08369892976647929,0.06735569412820902
28,0.5739907368103774,0.10233232500919684,0.9642320588937405,0.5630136328037129,0.944057904088991,0.18194924879214702,0.4955773178357172,0.09743996232999233,0.026089867375807707,0.16707505732725655
29,0.561005791079308,0.12736457434710297,0.943841585700666,0.5607322961608718,0.8924792348172637,0.15886384052507294,0.501411095151437,0.11550311504887965,0.0633261092407144,0.07342168758522163
30,0.5301555521311053,0.16151150547359686,0.9012267051781357,0.5587933938900779,0.8361812573585701,0.24121627569432852,0.5169587748184366,0.13016176729110415,0.05157857724612828,0.18472529658675635
31,0.49593148901092565,0.19248811176969502,0.856312995031958,0.5488329106795365,0.8007386586075252,0.3101647300966671,0.5391355331700395,0.14006768567103953,0.022647213193965766,0.32929820191826015
32,0.4656493746394607,0.2205049140675672,0.8158927354527774,0.5306117269727777,0.772309510545886,0.35915807614439144,0.5570974904667186,0.1470861530755451,0.02454913202465633,0.46236693234093545
33,0.43602170516885425,0.2651607237695905,0.7734375183406335,0.5026952386789229,0.7485298028896141,0.3356382233536568,0.5697993499883595,0.15480203557764516,0.0159122414643219,0.30001178856990346
34,0.403157863020753,0.31245619009841213,0.72535295294013,0.4709169622884299,0.7218522563046883,0.366572254751254,0.5836334069937144,0.16383819080039283,0.0008469490015207055,0.3208713761651456
35,0.36915407261608163,0.36692726173247503,0.6742204569370005,0.437216958327923,0.6917936101151275,0.3764153668250806,0.6003203799554131,0.1757171155535146,0.0018794110259394078,0.2988632388848827
36,0.33450846148472024,0.4228001927666334,0.6190448489874902,0.4053561616893808,0.6560520435972855,0.37752210860798896,0.61907990471619,0.19056454385882154,0.05367933166640877,0.28977778384640895
37,0.2943378639393153,0.48409614257255795,0.5542168831428957,0.38170337420780237,0.6205035349234049,0.427195616274271,0.6413189051232322,0.20779479736148168,0.01036125242774146,0.3678352297928673
38,0.2555536871730912,0.5459612830667218,0.48976808901529717,0.35977285911753704,0.5850963899597414,0.4142992090417644,0.6674024371392426,0.22664872667850725,0.002677724875355117,0.35156675596529935
39,0.21571786323739076,0.6065100538857056,0.42409143473893524,0.3458389704242023,0.5541893746753118,0.41675328873028505,0.6960586819178752,0.2461440049811991,0.03419875139967803,0.3718522528253799
40,0.18145430049065622,0.6629487498343832,0.3640919584556368,0.33170904163830695,0.5244608271718747,0.3855002751389465,0.7227686117322786,0.26559454894687246,0.04051370714791624,0.3865622533003161
41,0.15045917850871973,0.7238931625980392,0.30619768236341655,0.32065947137624434,0.49695432908688913,0.36045424130691084,0.7460113908715681,0.286766738328549,0.018111912586545677,0.3331492157922956
42,0.11543208682797328,0.7792502502809823,0.24238800400011679,0.3104402689503102,0.46525956105807936,0.39221346074659663,0.7724171880483468,0.30695969724619737,0.0852720063264797,0.3762532244508875
43,0.08649998013213787,0.830913494801725,0.1866326630597798,0.30160592595439284,0.43581338492267757,0.33260825289912255,0.8000281975062673,0.32659238547031855,0.0160601519046102,0.32565439089887
44,0.057976977044125605,0.8763743429776536,0.13163196857143108,0.29363440236398297,0.40358083957251506,0.3232335290142592,0.8250706301200363,0.34523417293788217,0.0727654788539184,0.3329609924551748
45,0.032860496913153125,0.9201733358099424,0.0817104652366647,0.289473234562404,0.37492075503405853,0.2756847551206391,0.8491915589611283,0.36406711668420905,0.08926614404881282,0.25718231761529725
46,0.013812203926391858,0.9597035106763357,0.039807946934426366,0.2859046548772824,0.34560220927271357,0.21674675409750888,0.87017093123944,0.38458171735537655,0.1243138872823241,0.1864881301373574
47,0.0021386833222126135,0.9852064190779234,0.011617534892682342,0.28523129623097193,0.315161713217348,0.13540476636500406,0.8847942127236026,0.4077981053803468,0.09743835792400153,0.10910255736799424
48,0.0,0.9972959077640412,0.0,0.2863569623080479,0.2778922938697601,0.08928179735008387,0.8905341809744787,0.43514305087450234,0.14894346538139627,0.04223130796276036
49,0.009531301988993653,0.9999999715331227,0.0076483625864211865,0.2905461622273718,0.23921097286195564,0.20146175970605396,0.8863008859650539,0.46845754810623796,0.04014571380996624,0.23031939403430796
50,0.02403108731004425,0.9795328486330029,0.0258037790954537,0.29899137205959603,0.20052312448239254,0.24664770469203073,0.8748475873084043,0.5060782749449311,0.04731083032549244,0.2627602623116251
51,0.042995662495322995,0.9396063774028127,0.05004442798646848,0.31991069731531296,0.1562587531342518,0.35635696445761467,0.8580552248244311,0.5450741513450756,0.10988757647596539,0.3653247819816554
52,0.06756647613380956,0.882652369450642,0.07869303473558904,0.35210329857388584,0.10459398061555916,0.5018812964786407,0.8344889409162761,0.5815975220904364,0.21380956133629975,0.4233219434112127
53,0.11357637618393172,0.8057489429474213,0.14654420761564332,0.38739434666156497,0.09251732560793946,0.662060921536743,0.7974351723954793,0.617538407088816,0.005109783478312093,0.6119312498558265
54,0.1632934759331692,0.7451670111168405,0.2306299837912033,0.4145378273238149,0.1202278322600208,0.599495757967201,0.7508050814901815,0.6571020743402888,0.4887781507101806,0.6154350286724438
55,0.24035094169333115,0.6750642607524987,0.36131205904845176,0.42863064910668214,0.1669699787334255,0.9272546540514467,0.6948012999663565,0.7033198499195084,0.06719845743987758,0.9999999885331821
56,0.31701051305271893,0.6222346533388051,0.4842986351987006,0.4368690957341256,0.20575127349372316,0.880352593577303,0.6272400630059201,0.7541462618192774,0.2911353166897364,0.8987692270497332
57,0.3885288037862419,0.5735880957644129,0.5857408176472324,0.4620804476315442,0.22915601835707847,0.7896719768106915,0.5564085486215081,0.8015910614040318,0.001062707347806584,0.678859645994368
58,0.44275066561763715,0.5501722569169246,0.6477232626540347,0.511712332987453,0.22307259760023693,0.9063157068767759,0.48591918842884113,0.8384041405544602,0.04400232474975044,0.4445568470404088
59,0.4886388140561892,0.5424182144759871,0.6897366904164535,0.5682805627901003,0.1913945780907027,0.9999999968397204,0.41776989566738,0.8619366596085636,0.4772653295126274,0.3460127014116698
60,0.526066583718764,0.5479639578804663,0.7286735359657013,0.6132436254003845,0.18605049007586752,0.5726360101756893,0.3593777108001171,0.8799154769199876,0.09046443488697344,0.39480337455049413
61,0.5611056963329476,0.5308906144859856,0.7793707123376163,0.6309741047444101,0.23143368224773087,0.36484940719265796,0.31926839874647456,0.9005441073978961,0.239816156282476,0.3630443134131182
62,0.6088727346886689,0.5068475355412482,0.8489744857499197,0.6328674125665914,0.28929370473762056,0.558932163228081,0.2831060485400581,0.9269510877602055,0.19699556547899694,0.4894212677720855
63,0.6481326237058289,0.5067747703037284,0.9029287032691773,0.6315491542675808,0.3256514387495073,0.42061811765656726,0.2413432655911544,0.9552596848901815,0.22065931684705362,0.4301096393417746
64,0.6677953821789193,0.5195125725670277,0.9272691706743553,0.640040843858295,0.332705983585112,0.3235435027768856,0.20695232570302083,0.978183100365485,0.26546600875965176,0.21234400225218547
65,0.6593139114098878,0.5576760684052274,0.9107230966448382,0.6638127657712013,0.30321249258868693,0.6244011806881365,0.18898173853724307,0.9900969033662776,0.1796497614653669,0.14530020097338783
66,0.6384847625328747,0.6313146105446532,0.8703238636508168,0.692556323083822,0.2200036472185661,0.8020378662340205,0.1828053260923311,0.9890536952113673,0.27137314850135635,0.2576751717307651
67,0.618390203802202,0.7004861829805424,0.8337706472499791,0.720665941428602,0.166548559699313,0.5609588882933629,0.1814289472041882,0.9802967797018611,0.4560226136571868,0.2686811689749367
68,0.6066822947182341,0.704913360425927,0.8165071276499101,0.7366957063646108,0.15929096701306478,0.13187077120191565,0.18618570719921257,0.9732689090119243,0.43992904962537577,0.12923930816567747
69,0.6105372402505156,0.6623821339803129,0.8306411519818453,0.7269787517583687,0.19933237451308264,0.5450566130655072,0.19659696063154183,0.9739653087441028,0.2312163869903555,0.17870481275024477
70,0.6366189694672922,0.6087993645271392,0.8774407850738661,0.7072890569853902,0.26332652040595195,0.6946510935279638,0.20294931976665662,0.9820417119590371,0.24336295379509673,0.4137310128112204
71,0.668178152767217,0.5734123374695254,0.9278985818608877,0.6944219622314307,0.3189606197472942,0.46317223449512046,0.1991890537291615,0.9926424506099804,0.36126527792335905,0.36549712433394665
72,0.6870583925700275,0.554308335558912,0.9586205023312854,0.7019964040468363,0.365987790749812,0.25268710077838363,0.1924564593338104,0.9999404467108275,0.20943954224042238,0.20565768993395134
73,0.7053078465088415,0.5578721149134852,0.9797164059033914,0.7217069075846684,0.36666504984774306,0.5069516672862043,0.18389494644642002,0.9991540399926728,0.1318586802611291,0.15484098683714603
74,0.7367166898352239,0.5793761191456338,0.9863252233619819,0.7568663692668183,0.35503083394084906,0.602470174618054,0.16676611159537,0.9904984601924024,0.05389915650486601,0.30393492472113287
75,0.7623151072819181,0.6077478905498481,0.9546605724800387,0.7949505974141214,0.3712924221797914,0.5430609844577455,0.15186117332351418,0.975410928777598,0.021588496157383227,0.4007223576740242
76,0.8049874629717843,0.6476368186892365,0.903834463860663,0.8265938767551971,0.40757467062628966,0.6074697555581267,0.1341748132527534,0.9550018136307171,0.050538639554151665,0.49788906698775465
77,0.8532858334628515,0.7236229490501765,0.8517121009254107,0.8405682197840311,0.4310883253231989,0.6950782720061244,0.09774053797463197,0.9283197664217293,0.09435198747686897,0.4877283509453993
78,0.8945099921659191,0.815268779008257,0.8112366176775146,0.8349584114536261,0.44555003142999183,0.6253845968702616,0.05458291984401624,0.8953246569714665,0.18119305500184288,0.35773155676122353
79,0.92330845681505,0.8920738899008074,0.7850102273264924,0.8192381251683138,0.4574578663599357,0.4615262152998956,0.019957491343590657,0.8574492562819467,0.1993043145110382,0.1799560111558094
80,0.9370329373992892,0.923783220678804,0.7735280943997812,0.8078669074572756,0.46187768414935076,0.2517877985547857,0.00197933603001311,0.8167458621042921,0.06404769137285724,0.008975836711444531
81,0.9409717917650293,0.8589462169229335,0.7677339993507765,0.8073427363980515,0.4745388369136305,0.23763221130258438,0.009322836151603005,0.7775046070635268,0.10053664830222356,0.3424108310756671
82,0.9390157944502318,0.7348178846354507,0.7609548896585311,0.8015344241058816,0.4930977321255775,0.45663581914684925,0.03657981577609027,0.7418127788697972,0.08828880374524978,0.42427848941259705
83,0.9211219761305078,0.5755139294396119,0.7702923108989737,0.7921644073304658,0.5078594878426302,0.6711889636963634,0.07582157794166003,0.7120735276094019,0.1314687401118722,0.48973955984509665
84,0.8877278357156768,0.44679099581186754,0.7954971789094453,0.7782618313273947,0.5185831184355374,0.7497311556245286,0.12433432995179415,0.6889394788375052,0.0164791843880437,0.4377690926184338
85,0.8548640574264642,0.3528268866173159,0.8223026090671667,0.7610431303302423,0.520978080692565,0.6912158566445984,0.1718868909544913,0.6710960625208856,0.010052174587790891,0.4071937170547695
86,0.8214220131357173,0.29268929441347363,0.8533276820620612,0.7435593098135582,0.5234804388865405,0.6395184066875953,0.21208693206885132,0.6580321376788918,0.08910466381261968,0.4075350241458215
87,0.7965079059959429,0.243709340216093,0.8792832684811388,0.7298146158308229,0.520362772122004,0.5099613641229995,0.24363222110102303,0.6480898534034268,0.15100894608953122,0.3587042516320236
88,0.7793874313336122,0.1939119711454264,0.8980126414466127,0.7221140118201024,0.5126432216392627,0.3682046380408136,0.26777835363488395,0.6392117856551593,0.08255320168877764,0.387239963665125
89,0.7702285271554726,0.1409060971379673,0.909607763385884,0.720253146306439,0.5032878345494345,0.2732668261510979,0.2861734292044159,0.6298700686739352,0.029865387609303438,0.34742259779017043
90,0.7688217175048826,0.09300714175254057,0.9141300966248017,0.7209849099083475,0.4901215823983743,0.243452508342131,0.2967155926518754,0.6190755957765958,0.012188276794651539,0.3159366447097315
91,0.7754021573030062,0.05025252194786403,0.9103166596855468,0.7222014886315427,0.477632393796861,0.24073606012908844,0.2985305529746884,0.6065025070225338,0.0025357510808927943,0.24109203111244037
92,0.7914605328007012,0.015593040712126978,0.894241026616301,0.7261282967432763,0.4773401233706625,0.25178558842122056,0.2956308062223513,0.5922344474107311,0.03162068236884916,0.23508289085053283
93,0.811677074416676,0.0,0.8710066500150616,0.7292794930632087,0.4898531667226433,0.21429154814724535,0.2897483454354138,0.5770930959771609,0.004709391977238147,0.24235770208201057
94,0.8327471562679759,0.005173993277371766,0.8458147214416112,0.730378023507944,0.5061541145277854,0.22380386518947587,0.2799210487027849,0.5615414559296084,0.03886698303991118,0.2292996144030676
95,0.857529693185265,0.021145070489634255,0.8161859523381333,0.7307313484139359,0.5248773985643147,0.2731408366403176,0.26569336083439293,0.5455817860048726,0.04880845054312761,0.24975378540729798
96,0.8742294949698162,0.05312176117917286,0.7964302047432253,0.7302225872133375,0.539546326748881,0.23986992002713262,0.24989564946745857,0.5293242778603212,0.04738272146450164,0.23025479809051477
97,0.8835973681322787,0.08675048421969496,0.7847486658495632,0.7292094596842719,0.5507203544918187,0.1950230766267807,0.23742660837079504,0.5129562335657503,0.08341148542060804,0.19006147730313672
98,0.8935099729714926,0.10553640585925135,0.7753534792652759,0.7324827156757353,0.5549693098769183,0.14561970638003321,0.2278677617245902,0.49613364977084734,0.04205639995157336,0.1241598611155966
99,0.8861000840919085,0.11287945728581711,0.785870468827028,0.7403502620997652,0.5457657548074291,0.10037020282880903,0.22411861256700147,0.4792829320823,0.06021219159408882,0.07667507338005547
100,0.8754288949004821,0.08699036282038772,0.7986717311457779,0.7526999745111382,0.5348141372658953,0.16439127311200255,0.22936824569921002,0.46320441449316535,0.23591770197743753,0.15696194361957427
