Frame,Center of Mass distance,Symmetry,Grounding,Arm fold,Leg fold,Kinetic Energy,Potential energy,Bone length coherence,Torque,Center velocity
1,0.5193882864775398,0.42805201644924834,0.9151104098044555,0.9235850271068787,0.5131219162981703,0.09268205090189739,0.6003604205236741,0.0010809231890490526,0.02896528991172137,0.13336853475199298
2,0.5295715997684496,0.4162970405343413,0.9289469122873171,0.9198796438346486,0.49970899497487636,0.09268205090189739,0.6003604205236741,0.0,0.02896528991172137,0.13336853475199298
3,0.5405782318715551,0.40618763052652607,0.9449456851941912,0.9153840821012549,0.5084830458476631,0.07631550000067276,0.5918345545849901,0.0005784375150653981,0.01876923803697063,0.09313077168438887
4,0.5537440321455768,0.39702723438113696,0.9639131707366426,0.9101885758404452,0.5401811666457158,0.07429824340860021,0.5807497772729148,0.0035793235955010956,0.04462809365369032,0.05818988807514227
5,0.5648482694303606,0.3908080658390145,0.9799921910369044,0.9049121911224426,0.582853238073505,0.059124561424538355,0.5694436243295609,0.008099107633296942,0.049285587358943984,0.0370388063926311
6,0.5727628111826483,0.38626405595611907,0.9914583089766377,0.9010188096865401,0.6242893409214848,0.04478076798294676,0.5607368778705102,0.013122912845772524,0.03581206365993232,0.0063526141861576495
7,0.5772249279903808,0.3837526068815705,0.998591067673469,0.8989220943730523,0.6664067522521407,0.03510699489457375,0.5552421458503863,0.017859940884704724,0.007368100439055,0.021095650849269197
8,0.5769876760616973,0.3879363196217012,0.9999998062551819,0.898037489072365,0.7106671962069788,0.04572001963356547,0.5526957956588081,0.022569403397619703,0.01624558183767456,0.08460541838716215
9,0.5720629643139356,0.3999167509896041,0.9953626533087404,0.8975918968956076,0.7566644483009713,0.07410485759896711,0.5520396020967507,0.02765488570200768,0.0241861453760256,0.126638824422697
10,0.5615579577040893,0.41802015361376427,0.9833268670599085,0.9001826354027099,0.7929767631228775,0.10659068349009591,0.5538864753385261,0.03337458458501699,0.07044551094862705,0.15513093991820662
11,0.5424399414411676,0.4457017965444372,0.9581340356535392,0.9017918277529029,0.8125034780158308,0.16648009944488146,0.5597398879907939,0.04060805835642306,0.024257855021726914,0.1995651415404271
12,0.5238442918179889,0.4732489827595789,0.9320236502601471,0.9055649759195041,0.8190549186722228,0.1583572765219775,0.567688293782429,0.04912705146254962,0.015620559036807645,0.18913094708005163
13,0.504341744870977,0.5025543277961498,0.9026641272740635,0.9084358287924754,0.8013860226682731,0.15698451190050838,0.5759081170970208,0.058743745814871205,0.018030482885447743,0.17634387467193016
14,0.4834568451484522,0.5292825661385735,0.8701947973343601,0.9128748662437973,0.7722535845487972,0.15548298318995474,0.5860527997907838,0.06955798488087216,0.017225645957232954,0.15006740539163607
15,0.4637545959577606,0.5537379558500017,0.8402514966073718,0.9149118238303393,0.7610650928185547,0.15580797630429408,0.5973051122302815,0.08141675765118592,0.003962096906219991,0.1603270650653824
16,0.44619253318688556,0.5719130567581446,0.814964308375813,0.9169814110548757,0.7887830953977185,0.17814540827708092,0.6076792884726632,0.09417728857465757,0.006135907045742361,0.1966092133364184
17,0.4275772250089158,0.5899654554941905,0.7852057530215152,0.9204658237460174,0.788458331030975,0.18569239163196424,0.6175299882171165,0.10777603847245994,0.021244824030398672,0.19041407839875674
18,0.40369086075796207,0.6098016291204114,0.7413214518323669,0.9225268634885777,0.6990955560459191,0.18930441629734338,0.6316317048092555,0.12197490639735606,0.13704904931673031,0.1447682230412404
19,0.3844614235509263,0.6274342953585698,0.7050994539524548,0.9224736423900862,0.6107864222388125,0.13724983374942662,0.6493668506599537,0.1362657004530511,0.0044090384487766015,0.08060645244029323
20,0.3706384039053521,0.6335846159387405,0.6818775338012525,0.9208383556777614,0.5934973004184676,0.1339544093998608,0.6656925392921549,0.15008028778409452,0.027592208488982046,0.10858854095745309
21,0.3608870682361428,0.6380257765815256,0.6638192247706916,0.9204005828350854,0.5881765222502873,0.13091509563863946,0.6780350016733105,0.1634570001669996,0.0650265380648914,0.12593200039816788
22,0.3503252442410849,0.6459334349755609,0.6436158411861292,0.9210332730052955,0.5669935763580346,0.11450004647507682,0.6861224961707972,0.17687426636131678,0.07836935484315924,0.11396516981483858
23,0.34040533281391017,0.6543421075329728,0.6255919238955904,0.9209729508979291,0.5450055168536052,0.09117621961321819,0.692219505772134,0.19040637865859925,0.043051370672736726,0.09363325979400033
24,0.33359859933313935,0.6576930931577358,0.6130221838369118,0.9201865069554793,0.5353861381743761,0.07406045318700333,0.6971309482424469,0.20372389171061878,0.02984548667808878,0.07123429058684644
25,0.3264623104937988,0.663785663067738,0.5998858619073396,0.9207570625269841,0.5217020208923588,0.0627122312019113,0.7021350247723506,0.21659211552433807,0.05135018199969845,0.06840346768746332
26,0.3214044312080508,0.6700756980090745,0.5905401270159502,0.9211393005406453,0.5145236958358249,0.043159229315791296,0.7073429349633245,0.2289819900059844,0.0251230124394435,0.03939593336745516
27,0.3158326012053393,0.6767918644906227,0.580715994202444,0.9227376217130329,0.5077312167696343,0.03913293495404622,0.7124212244209444,0.24082067577039593,0.060549798125474945,0.03649106831935716
28,0.312617724063327,0.6816624301819268,0.574402905309496,0.9244880942000361,0.49737112943760353,0.018881382873601332,0.7162980661936015,0.25220424038133127,0.009578871799070247,0.01873008311344491
29,0.30880320026184044,0.6864686052759049,0.5675355802984833,0.9255714124481651,0.4923711134673013,0.02597077983396551,0.7187970712470512,0.2632497731713819,0.06918322988896036,0.027260763845899313
30,0.3084409340348804,0.6885948814403036,0.5663574427428221,0.9264102934803499,0.4920179100828026,0.0019250277691959142,0.7197585894037107,0.2739279524029966,0.01849298373540793,0.011790137009983865
31,0.30744171955634225,0.6902889024116058,0.564412545752545,0.9272115105187552,0.4887425401923574,0.0,0.7200459136049673,0.28418115719583054,0.013603824610476463,0.006088140125655925
32,0.30625348665798974,0.6925894363946432,0.5625232046499977,0.9242233401244981,0.48088950616518633,0.005490830435441064,0.7217668770124953,0.29403178551231546,0.0105115375503752,0.010970132771039197
33,0.3081086076273153,0.6903447615655204,0.5650549658193867,0.9214407707627597,0.4794252558072973,0.016220140085286126,0.7230025531974483,0.3034141762951321,0.018326391236615367,0.0378427028434916
34,0.30985375339756416,0.6871308890535716,0.5676643288636989,0.9196142846232455,0.4837691066837768,0.014375439864274487,0.722848521680442,0.31250282681273306,0.004726741703931369,0.03334911446336815
35,0.31128129270933885,0.6852557276256047,0.5693155733045476,0.9158850070085665,0.4874823416583203,0.028502849306719306,0.7216544977529974,0.32160875233421515,0.009008558783334387,0.02861946466128371
36,0.3126214542533552,0.6830560503652185,0.5704593191201868,0.9140788498895299,0.4904280409147973,0.027597614739717873,0.7193641584712893,0.3307365680551202,0.0399574319198996,0.0067717529090512716
37,0.31240301183703995,0.6845497749146962,0.5692406169480891,0.9134302496292432,0.4895800160036201,0.012359324206074376,0.7177509339949417,0.33980164650759653,0.033245752445671656,0.013525218923653182
38,0.31183917983571485,0.6869232621009046,0.5679425492220912,0.9108564186886927,0.486992001693051,0.013347214012718125,0.7169135383760014,0.3488216017440483,0.008782983452954075,0.004044683419957048
39,0.3078677675195149,0.6905661900495804,0.5605249563707104,0.9130543456938364,0.47882533722128107,0.0298601471569747,0.7170551610350624,0.35737386181712044,0.014457322321664759,0.014687751370691737
40,0.30385138911725895,0.6930980430947823,0.553882059509335,0.910904322443895,0.4729854298694642,0.033185303500543724,0.7178016730370202,0.3652185847630173,0.004034201520993876,0.03797001938122019
41,0.30180016818297345,0.691821316108198,0.5498317707420054,0.8977600595480849,0.4651213437954137,0.05034129651423757,0.7192348361995334,0.3727600814383981,0.04377511173557646,0.06508378480790779
42,0.30230505627651766,0.6888771917116729,0.5498507302909935,0.8847483080361044,0.4530017792083921,0.04338238605596743,0.7209285994612787,0.38027197554530023,0.004867921346832902,0.07407744596008073
43,0.3055698291757502,0.6772140235432286,0.5537894663631205,0.8845121556322503,0.44314695864624926,0.04987631787110324,0.719852259607596,0.3875209223600909,0.07100497029416122,0.06271136973112972
44,0.3171956967948649,0.6598439756705495,0.5696572861060593,0.8770231689932223,0.4576870778663515,0.10976261552553115,0.7112644576584538,0.3946594981821497,0.004493618522818766,0.05580194921806954
45,0.3320801107372284,0.6410457577957048,0.5921300836123993,0.8633425341756253,0.47602592683031075,0.11733174827136318,0.6971791396483366,0.40192821544618684,0.04888207688806502,0.10024833169547163
46,0.35266371636591065,0.6217015821295485,0.6229856472894854,0.8353358656492239,0.4933301725191235,0.16764753690418194,0.6826085410732514,0.4091377281120068,0.15770800651352446,0.17998470431071034
47,0.36255452175305286,0.6019081758799129,0.6397666118220114,0.7925196337873327,0.560277941275653,0.1178894672009873,0.6701373670421198,0.41606260503280446,0.35829791007300077,0.09264398569523723
48,0.38950961582487065,0.5699019272731879,0.6808448997610753,0.7438247712322962,0.5950292372745616,0.26966744959958866,0.6567998273753272,0.42263111002055603,0.13665272224108346,0.2459465052270791
49,0.410738972352036,0.5513053696314292,0.7136003866145604,0.6981290877202458,0.6222971524392533,0.21929976877077886,0.6394485574141189,0.4289603752994103,0.23267891726853754,0.18548328686560753
50,0.4264544549209626,0.551086353361362,0.7363522863187802,0.6634956757811883,0.6369009310288916,0.15973620283488146,0.6174117272942405,0.43519792749103764,0.0466641926593362,0.03882875461440061
51,0.4346518216382513,0.5428094300173755,0.7462879718274888,0.6574181980002641,0.6287076284975969,0.14950494214507193,0.5941361514563279,0.4416643900871171,0.08040067726212995,0.047016228687884194
52,0.4429307888846616,0.5385901175754492,0.7563603424568025,0.6706935406872649,0.6060324674448231,0.12175798555596062,0.5733321360561592,0.44925416398039786,0.06617966598188363,0.04905607495801869
53,0.4577542548103388,0.5307476502690367,0.7753300325979738,0.6697596479156083,0.6077505038305984,0.13995208413001414,0.5529815528249639,0.458154277672921,0.003398312449452162,0.11839670493342397
54,0.4724417409610819,0.527829261430089,0.7939906379986827,0.6421967643106459,0.6262156769092716,0.16455621607300225,0.5348455185280684,0.46796169097963236,0.003764794914554926,0.08579719640846502
55,0.4868276765666731,0.5265878628218684,0.8125061808036524,0.61104374225268,0.6562471891946698,0.19280045344906244,0.5172868920487785,0.4786022859203687,0.019565863233280394,0.10842778404902795
56,0.5021254831329632,0.5286739918723862,0.8306720742517233,0.5872533205645911,0.6740298332515021,0.2112994281401859,0.4962525325539012,0.4905455565963981,0.14766473786908194,0.14482196722016444
57,0.5117210995160895,0.53528209052924,0.8411227540212904,0.5774028902577324,0.6767966879992776,0.18506120408284196,0.472015196735259,0.5036918850647647,0.11049023714499885,0.09031272293409967
58,0.5119742694193335,0.5508165656115136,0.8376862255374482,0.5809791371403166,0.6635226219646393,0.17156247661765206,0.4489882645472696,0.517691690628095,0.05034971101416382,0.06501328442449071
59,0.5010409507207483,0.5760892206258481,0.8177623850705081,0.5905128125095152,0.6273359815948091,0.17179228409362104,0.43257057998607024,0.532351079894962,0.005784806561701177,0.12457388676076188
60,0.48687466575786653,0.5977456260441601,0.7929566811992712,0.5963532003675968,0.5678926925984561,0.11600160845127774,0.42755025270009567,0.5478062873492078,0.01578315271094946,0.09086967802766112
61,0.4800215340524674,0.6086837825380239,0.7789680614047706,0.5901013817462242,0.5335022837238567,0.10150244320734479,0.4293814887521785,0.5638437061304001,0.09491656232572036,0.09695961639839427
62,0.4696105502114168,0.6213745353400529,0.7588832852313127,0.5738781293817575,0.5219460348352867,0.18978998205340972,0.4376590220178263,0.5800285839948769,0.031287870774646086,0.13665318698804893
63,0.4530886656321311,0.638955849667171,0.7303579824006611,0.5693538073891716,0.5214333410360493,0.22550391901966263,0.453787672198332,0.5962576738344999,0.028171537233028628,0.19291385491419144
64,0.42992659676770306,0.6616871397902628,0.6914221234971363,0.5753418345164067,0.5015925312789157,0.25969318247308765,0.47358987456023793,0.61229786299332,0.18251572773852368,0.29179547116800525
65,0.4124809435063965,0.6773636578262987,0.6612376396702444,0.585133975357303,0.4729023292584237,0.19781822111266933,0.4938161952352019,0.6280008663654025,0.04550398883861391,0.22353912096415832
66,0.39557218904165314,0.6889291522843893,0.6327811203196391,0.5925387936424465,0.44250438366861977,0.187399055901205,0.5135212393271356,0.6428028950083551,0.0393017433213594,0.23045848995355087
67,0.3753998168936802,0.7082943098946919,0.6006521804222128,0.5956248244861196,0.4201288402501324,0.17772251384649657,0.5347758292919125,0.6568319890647115,0.15310459884931918,0.21420098012307923
68,0.3628576481842343,0.7184660871738205,0.5800868017279206,0.5939401761424804,0.40429548709188107,0.11499824667918952,0.5549101043810523,0.6701005663116788,0.09627855031945956,0.10806779301486748
69,0.36052047256563385,0.7175892402075214,0.5763253153928352,0.5895944063241215,0.40228529929043627,0.0722454008381194,0.5688398436287843,0.6826560303148657,0.010912216444720237,0.06262643055379763
70,0.352903866786323,0.7244876919409778,0.565371105275751,0.5866022308224595,0.4004943128954148,0.06667005566317968,0.5805301269660652,0.6944259457478532,0.015355096288613162,0.040403331870399226
71,0.3548340633769898,0.7173615370732062,0.5688257114690918,0.5864120747060962,0.4003144008907469,0.05969493324882376,0.591899520212993,0.7053558360068684,0.094788583460315,0.06585153561920153
72,0.34091627763971727,0.7388852188471081,0.5505275420978575,0.5815830176830886,0.40673719429650806,0.13398831672257944,0.6025202354364702,0.7156945231407064,0.2237435426334072,0.14256707471072114
73,0.34244704345043997,0.7368250421110687,0.5545937039759657,0.5771144390816167,0.41293180766746485,0.03429757501778293,0.6106791792768882,0.725318062880347,0.0014304690794051805,0.020728533209746828
74,0.34622586064612443,0.7344409500273693,0.5621343134358904,0.5794267696600661,0.4193416916649932,0.046785959568899034,0.6130674354603591,0.734299498694448,0.011863223681885547,0.0378623616112284
75,0.34667327310142926,0.7366155975181696,0.5648283330710298,0.5839789589514839,0.42893310227023773,0.046714564679304925,0.6138666735379353,0.7427518439368432,0.03996437346725448,0.03020835413905424
76,0.35009688567467645,0.7348674369352497,0.571552800085023,0.5891338534313754,0.4372856045513614,0.0347101390876287,0.6136297861069626,0.7507815155438554,0.0015226679903157195,0.030881470069829265
77,0.3568980515646366,0.7329379362007522,0.5830793240296683,0.5878090979839639,0.4440258322695067,0.05226905601164413,0.6103478349732187,0.7584197515743645,0.001609456914085711,0.05363560930253525
78,0.35506292092897346,0.738557653914818,0.5818315211544733,0.5959693802780555,0.4481131197197648,0.06058388202457339,0.607837216960404,0.7657559540051897,0.001648800072183423,0.06480008617890054
79,0.366780249664272,0.7216631358501495,0.5990900017696265,0.6074058499031312,0.4521908022432962,0.08775629719970872,0.604530081517693,0.7728354521207806,0.1533341071890378,0.11002239231485271
80,0.3671837267444482,0.7163948033125017,0.6007377188525254,0.6112239170799603,0.45510320432498536,0.021175675251424053,0.6004564991644319,0.7796451802691341,0.0910926143722857,0.00701994444074003
81,0.35837811281664733,0.7270392653970152,0.5898716926842204,0.5981957372739634,0.45827748988011907,0.08390223499906523,0.6011904175065979,0.7860474561901238,0.037042067473990005,0.0834365105167109
82,0.35967728205598554,0.7294821803529116,0.5948532039506337,0.5626984128638154,0.47374893365505866,0.08330685163779282,0.6000404887888824,0.7918795454804433,0.12144543696024196,0.016805828541053697
83,0.3710118191411304,0.7250498263703634,0.6162091517457142,0.4944176310118521,0.5010898841542023,0.1683837313017425,0.5926472796317613,0.7973853575702153,0.0704002988386568,0.1508497096395541
84,0.3860668016713289,0.7286550758839875,0.6446101152085896,0.41808996754050615,0.5301817150174897,0.2286603884662412,0.5802053961228011,0.8026061280383272,0.19079781095652323,0.1755401210797457
85,0.392236377978917,0.7430104848301924,0.6578518169569499,0.33824291101230053,0.5561255460831445,0.19093291982174718,0.5670085387644354,0.807462369730577,0.05339016789568082,0.08640005885486016
86,0.3961324565456579,0.7618947982227378,0.6652782282032075,0.2835034332299495,0.5655123476490284,0.1673797984295852,0.5571800175263071,0.8121149329797535,0.12658812776812337,0.15219140452980512
87,0.39886603257469316,0.7672965515759163,0.670067498461288,0.26314347708743946,0.5534048514956399,0.08352157113706567,0.5494107103727004,0.8166308236133091,0.05127407656848806,0.08621727873967407
88,0.40192815953427313,0.7648583512096715,0.6745124103993945,0.26398703782136024,0.5450859639382659,0.042413731362010106,0.5429227138567331,0.821271849171645,0.03573858674854137,0.03648353846018956
89,0.4050160851877529,0.7598171736690233,0.678566226524676,0.2669047688687004,0.5447291357983037,0.04625633647108339,0.5381556051873363,0.8259108189646692,0.031125486080473174,0.025416083935685833
90,0.4056218304821068,0.7524892349458346,0.678971431769307,0.2627542323602107,0.5426978435230833,0.03437061815020158,0.5379960737610786,0.8304406423522028,0.011284450698034597,0.030974899637566854
91,0.4070840897423232,0.74562841418974,0.6809480749811436,0.25234811485165054,0.5426485900670369,0.029699117160122353,0.5407139154335666,0.8348758419349416,0.014709440395304307,0.026674254767464413
92,0.4089924227385228,0.7388624974366568,0.6844331046368118,0.2440214693718213,0.5487456743678149,0.03201556648264273,0.5430106533310736,0.8391845091852557,0.020023035199714722,0.02769655481602828
93,0.41065808063874315,0.7349089364708424,0.6872607229543468,0.23321879034250462,0.5513753039699746,0.028937601948120357,0.5459115716041226,0.843349734474453,0.021398450195815318,0.026117918461122703
94,0.41182346583991514,0.7318427646517605,0.6893661147313993,0.2214551120807494,0.5564310953431966,0.025011063938718534,0.5492839619624602,0.8473658066527888,0.012908962498064468,0.011844277699518523
95,0.41339012097822986,0.7300523062527859,0.6920076649170159,0.21020593359993703,0.5584264304464525,0.026730130763129335,0.5523783361142497,0.8512280963655926,0.015577220810029197,0.004586719353787287
96,0.4141117706585407,0.7267486977702892,0.6932964733283922,0.2062055972108405,0.5569633041597506,0.02860118454623846,0.5556657606588108,0.8548975832874095,0.017987279943428008,0.008403901523741361
97,0.41422277483712255,0.7232350952227959,0.6938061765523236,0.20618218632351373,0.5599946969497904,0.025432346859731447,0.5597424457817416,0.8583877975043737,0.004896516989201284,0.005737616851724338
98,0.4141776370262386,0.7166345754019678,0.6942215229510637,0.21773335218283676,0.5618484434235591,0.031172045416962585,0.5641965615223351,0.8616579319564844,0.0010298183461939924,0.02504810307741493
99,0.4106337109316911,0.7153554212078651,0.689890809226622,0.2413966283252781,0.5585689792118312,0.05205167266043768,0.5683062170511222,0.8646611995671004,0.008341902484609505,0.05137211986772107
100,0.4050857606154886,0.7103471133723885,0.6819992276505663,0.29352300349114935,0.5441271324260423,0.07866869109214324,0.5737446729689825,0.8674732752521181,0.022878272157971308,0.04838416062941202
