Frame,Center of Mass distance,Symmetry,Grounding,Arm fold,Leg fold,Kinetic Energy,Potential energy,Bone length coherence,Torque,Center velocity
1,0.9965526202500673,0.012451058334082058,0.9972022655211504,0.9946738548627445,0.9983241634398368,0.016063927723714597,0.0033105691947655897,0.021933255795101223,0.004815687495685225,0.016494289850145328
2,0.9999999901223741,0.0069507004357137175,0.9996371534777685,0.9958904414207559,0.9993391774579378,0.016063927723714597,0.0033105691947655897,0.017792406337646872,0.004815687495685225,0.016494289850145328
3,0.9992183661719065,0.008231902239426334,0.9994867940205568,0.9969613123180947,0.9999998448875681,0.011914270492175062,0.0008336717530491153,0.014949216333596204,0.013778479769298033,0.006032616522123443
4,0.9996560686682965,0.008479074571776202,0.9999999226466636,0.997843069076073,0.9997046266071864,0.008126093370923425,0.0,0.011949461992872352,0.003370963721498463,0.007563693446699703
5,0.9975140073829031,0.01050991711413353,0.9988831979219892,0.9985042519648789,0.9978754125827133,0.010328215555474208,0.0011108557146813974,0.008968359907056188,0.0003875594144273172,0.0013601977116073575
6,0.9947442851316174,0.014409877631052715,0.9973778047917705,0.9996096994932815,0.9960314417356518,0.01709689305538024,0.003739366535547089,0.006049559161363365,0.005201974806737945,0.008729876334002493
7,0.9918890319165217,0.020100112776137206,0.99580802328155,0.9988751436766382,0.9952655661066167,0.017040406583919733,0.005458212589714779,0.0040192317278291605,0.006339518326293489,0.017934530171157217
8,0.988729002726711,0.025451294942125956,0.9941432779036166,0.998995335357196,0.9947055302119505,0.016027610685688976,0.006597540066006587,0.002329743769988546,0.0026733742754314134,0.01174611144079304
9,0.9842938651026616,0.03180350926859724,0.9913555128476563,0.9999999122075016,0.993103274805796,0.01932705283270093,0.009031009860128291,0.0008784455680398555,0.0069494956900215165,0.018483909978350213
10,0.980802341943355,0.038853898035191244,0.9894209837546305,0.9989992371496004,0.9927867331638043,0.019131740556187906,0.011097997307751262,0.0001937128148504183,0.008981381463851926,0.020362636327091434
11,0.9767743781786417,0.04565518275925621,0.9869961677233754,0.9983383014512203,0.99219027201619,0.01669686118157089,0.012722095072508923,0.0,0.015471226169432988,0.015430270465565494
12,0.974438301796568,0.049724944368892535,0.9856382563574075,0.9984314968415278,0.9917696304849344,0.009246605946331216,0.014687009202298427,1.069076613551128e-05,0.0004969196698775373,0.008539053389446015
13,0.9705465676198219,0.05567292599852717,0.9832839438036967,0.9981811989543022,0.9906139580376162,0.017535004078498617,0.016481857707792476,0.0003746034072223155,0.020261466222121213,0.022849492040485447
14,0.9685026115694872,0.059031663619454444,0.9819522913859987,0.9974474377059389,0.9916008761485153,0.012660569341842577,0.016893888417952033,0.0011963408517227832,0.017055181624850792,0.01503523422685541
15,0.9674396046152381,0.0606983738285744,0.9812794508005563,0.996958333098392,0.9924980404547733,0.0,0.016739109380908005,0.002068490829842305,0.00309575962562727,0.0008939762217258434
16,0.9661282982152973,0.06127350149563037,0.980283409324434,0.9970498159037591,0.9926156320099188,0.0038800965187054627,0.017586010807963116,0.0031184316609964495,0.004856623866280098,0.005678735045689567
17,0.9656660869412728,0.06113694094662051,0.9798174029205634,0.9970938336738319,0.9925274918512587,0.005035378655354955,0.019006762402687494,0.004501600993801362,0.0005454400634218423,0.005072039348223768
18,0.9639851169794036,0.06085056304718169,0.9783515780685581,0.9969839599864155,0.9917116399818557,0.013118774050391146,0.020846496089297378,0.0061631644009199306,0.012302522483577162,0.013348957703208904
19,0.9619437505230374,0.06151510925371512,0.9768289187805738,0.998688647995955,0.9911791928355305,0.008193828981764484,0.022773469818174942,0.007884682974940981,0.000671834027904497,0.012949724594376454
20,0.9598400965685061,0.06258996003442795,0.9751258641150974,0.9978084088700956,0.9904256520755221,0.016853150298389158,0.024509185282641125,0.01008183198090312,0.00820104257976371,0.009851067674789056
21,0.9569318329984532,0.06418067083947938,0.9728499686945735,0.9984011412732241,0.9890923356353425,0.015303388912311913,0.026763138062979523,0.012323443310465833,0.00290024308510157,0.021884592499158643
22,0.9544529181442074,0.06552368171680191,0.9708846842580267,0.9972319977705346,0.9886060782033916,0.0197014330477142,0.029029967218816285,0.014758159798344453,0.0026736631237076,0.020276615548706863
23,0.9513406200476244,0.0668845151451976,0.9685116667000696,0.9985008788305965,0.9881718837457902,0.020461337053165444,0.03156784849529973,0.017018613857809898,0.0007980679182748527,0.026514962079856205
24,0.9472494204864597,0.06874193639054174,0.9653341541037056,0.9985720581219494,0.9871940903535236,0.02785663631681192,0.03563971929331175,0.01933866213776889,0.00845835550577142,0.03308622561967901
25,0.9452212389693556,0.070526569688274,0.9634086178011829,0.9971352105687404,0.987151233239582,0.02679642049934071,0.03846809889057252,0.02187845961862256,0.010591774860866444,0.020108787908156844
26,0.9414472990760606,0.07276048336149674,0.960523011184549,0.998548804200435,0.9865705717046661,0.022547423634097265,0.041428142589800404,0.024350261415594654,0.006957572975084219,0.03094584134777415
27,0.9384443141413141,0.07432101823933965,0.9581239145341329,0.9991848331524681,0.9856447622773066,0.0196917190264463,0.04533275143216369,0.026838216794811874,0.01822486274675197,0.019713454517471866
28,0.9369303346498793,0.07569942994425215,0.9567012550765425,0.9987556609603983,0.9846438048485048,0.011829925523870398,0.04786799589823704,0.02949782338875627,0.0010906685547267302,0.010506894992935755
29,0.9347024634170586,0.07677010911861158,0.9546464024465853,0.9988053068608385,0.9821665343161535,0.015861495919937855,0.05051142314233087,0.032296889126265646,0.009375723799476597,0.006178219311203639
30,0.9325822939168749,0.07642211721788095,0.9527000028700946,0.9973420894993164,0.9786582109762052,0.01467500919374235,0.05379356931071019,0.03521989678852677,0.01235748138782805,0.012067562698347526
31,0.9314186789005707,0.07580512451439413,0.9515215876025691,0.9941645719750015,0.9729563911586522,0.01637747826616173,0.05641900743137598,0.038349403737630114,0.004601995585791258,0.024558120802209815
32,0.9300730750934518,0.07402006381358309,0.9496775259820042,0.9911911289468681,0.9647050324130663,0.018349201790535126,0.059049841744397265,0.04171589937708926,0.006873090054148304,0.03487948397430316
33,0.9292332474465581,0.06867685848817968,0.9479926367533432,0.9877697710852061,0.9561163028859756,0.032893532776097675,0.0624370286307814,0.04555864472493441,0.016356754504961143,0.05715550095053248
34,0.9248132270489271,0.05976736179193036,0.9439347299667262,0.9857205872431395,0.947944080565257,0.05736520418299108,0.06954974972123561,0.05000432223799041,0.03516916277181346,0.08614491730039457
35,0.9197894438994484,0.062138355954043906,0.9389606376836532,0.9782180650684686,0.938615445789325,0.03699868719861821,0.07818653528203602,0.05534738530746593,0.13562897569615037,0.03111402206933244
36,0.9069078737910492,0.06457629795981946,0.9276930308948933,0.9651680819709157,0.9248901716819229,0.1423553325336322,0.08419308496202607,0.062379129607750196,0.08820046626782113,0.17653673379461302
37,0.9240634340862058,0.054663254522621454,0.9368009291164293,0.9511953698400881,0.9185598445425674,0.08027712688382818,0.07688839254387261,0.06966978025661148,0.04480729649884235,0.06947849372121702
38,0.9187949289502505,0.05484015062756894,0.931791944806205,0.9393610403170769,0.9143162965558144,0.057086997698323864,0.06939384993232191,0.07730168779944088,0.007930403647843889,0.05480519319411883
39,0.913238660082537,0.05676388127207926,0.9271097585028621,0.9242720563684188,0.912178900706439,0.059366307190265435,0.0736716396200148,0.08522146595158585,0.01922799995888476,0.06487236769839018
40,0.9096741409013273,0.06096381129433421,0.9236444766103984,0.9055901138150063,0.9104999079057936,0.053777288792833305,0.0764410654865338,0.09366436255277236,0.0,0.029854640710057688
41,0.9031124679017343,0.07103192441238353,0.9181851333517789,0.8801462791178386,0.9061593759819048,0.07267756290515678,0.07923829921802547,0.10258015733666882,0.003340693061331476,0.05575588545753109
42,0.8915410720951144,0.0903925847961351,0.909807809430714,0.8485916651899897,0.9018641675819817,0.10248838015403669,0.08443162281411565,0.11242729092124423,0.004840991369628804,0.0740139366416279
43,0.8863636680716298,0.10899346172206267,0.9049801197770314,0.8177091611955148,0.8912601425016685,0.09656219177142485,0.08858086466066006,0.12351242504536986,0.019571049641583016,0.05491036041987601
44,0.8821600159891072,0.1274038904141447,0.8998245529816059,0.7993292200763759,0.8714369700256425,0.11000134929416677,0.09023102518848772,0.13588235030268325,0.0003230282440251344,0.1310830355280008
45,0.8736045719401511,0.14867173360969985,0.890628705268949,0.7958820105980531,0.8408187177640967,0.11975913057034013,0.0940614552700163,0.14911572684360952,0.001471847012366559,0.17656178185864313
46,0.8586122324015535,0.17640582377692166,0.877410742075877,0.8005101751424616,0.8077663362882984,0.13235449157840962,0.10262075339777693,0.16279553718972264,0.03164124912899771,0.17189930251561217
47,0.8433503097825611,0.19662283700838493,0.8650593241756838,0.8029058645594337,0.7770343700414297,0.11328000158749967,0.11512380908816859,0.17611855306687624,0.027119979617141434,0.12132916132231583
48,0.8260935751844204,0.2223284598767745,0.8513598869790757,0.7961663201792307,0.7546325632089246,0.09199483692614566,0.12925945390502663,0.1893069761716241,0.09994369639078624,0.08980609828571379
49,0.8186634060945798,0.2327463949447186,0.8449627755267924,0.7817210691148727,0.7412222047109935,0.040713287781509976,0.14034499354408583,0.20242517027963475,0.06251237261997127,0.022903409829598362
50,0.8182675827152768,0.2233498836817298,0.843340655975844,0.7653815092227458,0.7369925076036311,0.08581547503878004,0.14618644726192953,0.21538126212622297,0.1349147437083837,0.09248399915628315
51,0.8348435903129077,0.1888069522863236,0.8520169002532318,0.7524690961443262,0.7386778656712587,0.1641466319173532,0.14360671150750037,0.2281690071727237,0.05899108037910428,0.14637302094976634
52,0.845908347586874,0.14955349999619416,0.856444770441147,0.7455323372508188,0.7395390057176213,0.21821091528823447,0.13605743816019325,0.24105198819641824,0.035049568433606446,0.22574958231296438
53,0.85798001435266,0.10072288254289306,0.8608174248953724,0.744464389866872,0.7366970121704506,0.25376262748461775,0.12938840300422338,0.2540477812834799,0.01609564981767814,0.2716050195307029
54,0.8713716633578356,0.05272604604120981,0.865801768959619,0.7444588596583268,0.7304448299083262,0.2438836108860902,0.12096725628396061,0.26721931571750085,0.11218520012553289,0.25822257560654516
55,0.8822058493477628,0.01908478086582854,0.8698064384264584,0.74238406427968,0.7234151130709714,0.18240967210962145,0.11131895176374358,0.2806613340086538,0.13282847215877341,0.18707607543977195
56,0.8876944677993328,0.0008785370300060959,0.8716769388511022,0.7390265142843465,0.7226519898666391,0.11380858206837884,0.10394610207713706,0.2942450380518722,0.13661777274432152,0.10498420776646843
57,0.8872327173690442,0.0,0.8709136307931998,0.7359578177607713,0.7252956907873384,0.04553718945215537,0.10144077948248494,0.30791925612454535,0.011556920331258389,0.029562923168621445
58,0.8826540928193434,0.014640717599308226,0.8676778449143754,0.7340669880183542,0.7241532799489914,0.04021630143484322,0.10278797570543798,0.32152832649063157,0.09772584022272254,0.0407828531940978
59,0.8711987395952391,0.0453778389238944,0.8604471017824554,0.7306865353515902,0.7208429427309541,0.10643893353228896,0.10785091293858806,0.33486836521080304,0.10774286753806843,0.10955804387654748
60,0.8537490943314524,0.091133500865537,0.8498809326529368,0.724801749414134,0.7144234841868238,0.18257811250791023,0.11768675313960177,0.34773022344635907,0.07666825725439397,0.18687771093717961
61,0.8277861400712468,0.1519614784831255,0.8341635132674341,0.7171465454158304,0.7055358164637019,0.24205726562275817,0.13308205125165704,0.36004605858928457,0.001948307300370257,0.2320293145948604
62,0.8016260620362311,0.2129265373217633,0.8182615618208081,0.7122917128735069,0.6977230371848868,0.24375436435836506,0.15230785811190165,0.3719193448614351,0.07757676734045858,0.23846194526505468
63,0.7779932562325746,0.26232408956140696,0.8038543920116062,0.7105075264354647,0.6895681488127587,0.20188350348011938,0.1720927225267836,0.383375409489164,0.14218522513479773,0.1917316579078617
64,0.7612157248609389,0.29476022582782885,0.7931536907361614,0.7102734024095517,0.6828251413141234,0.1282630274494063,0.18915034101608136,0.3944759020616876,0.14167561685064883,0.11954817729898651
65,0.7523808710221158,0.30812462785759936,0.7875799591823421,0.7066554838006617,0.6783759068639402,0.05644481209237094,0.2012482195664449,0.40535745490945135,0.0580374498325189,0.04157325475687659
66,0.7528964696185266,0.30713126020545106,0.7886107128298069,0.692829370354896,0.6808327814806499,0.0508152006797808,0.20797417343034,0.41629105336642297,0.04331146130851647,0.03891081935808105
67,0.7591917182969051,0.29843308316344197,0.7938955959526668,0.6590519911898038,0.6904914752662955,0.0970888960043055,0.2085505929760836,0.427484321340056,0.06057513267708695,0.0366098161289929
68,0.7718191877516319,0.2822907141472548,0.8040191399336228,0.604529889092697,0.7001551810045186,0.15922992285036597,0.2036138349100796,0.4392229959968137,0.01399235285860736,0.07679684634578694
69,0.7892164788852151,0.2636361409102432,0.814386568393023,0.5489661295250775,0.6850878590587672,0.15100956979901478,0.19324500490055,0.4513739263658463,0.015565654152946369,0.129074543162597
70,0.8165325597833749,0.2381981997122431,0.8226540004141402,0.5470544627226127,0.6171919079527085,0.213546453804324,0.17188152128130668,0.46272371833917075,0.2860312141788977,0.22828915372772893
71,0.8518294283420416,0.18667617163261835,0.829676290662199,0.6567029103175477,0.5431374341825845,0.5538620426363435,0.1326413010302155,0.4705383608889225,0.13495378734448735,0.2627418269422845
72,0.8798158843147339,0.1373765615205864,0.8296935568199647,0.7508876207626812,0.47666368641749185,0.6772374413521378,0.08301522951229867,0.4739679142028575,0.40453637502104295,0.09769946182378512
73,0.8944879446145784,0.11483587349529358,0.8287410404498762,0.7278030881792735,0.43915155003739453,0.3046907865006187,0.05273742555637923,0.4748717770715248,0.3019582676827146,0.1051886819774235
74,0.8720178969057,0.14141580096187414,0.8119464646179132,0.6776900750136635,0.4290978693260794,0.11619688898936957,0.061383892246844145,0.4752088258022313,0.10908975184351409,0.05742144043582419
75,0.85679139257404,0.18374325477212478,0.8055000726736727,0.6386583737668717,0.43500820528758066,0.20626875352362622,0.079496651549539,0.47644120755234437,0.0014167819068303432,0.12289499597730491
76,0.857105735781312,0.21321391552852112,0.8105968266192081,0.5934094937013628,0.44982946011146135,0.21598152255163267,0.08568450918566256,0.47769962922327963,0.09090332870383303,0.15996738171922573
77,0.8605898332929335,0.23554472829150164,0.8172309880291525,0.5503236099496553,0.4654781503062185,0.17426423006790479,0.08566397719333037,0.47966622338906684,0.06996613079291976,0.10288948936916327
78,0.8605570209049783,0.2564374974163792,0.8203441122455146,0.5144533263479237,0.4811782961719746,0.16162840121532238,0.08424392804151008,0.48253514825461974,0.00283171447791309,0.05964286550807607
79,0.8563608069613865,0.2801295077805601,0.8201201917619879,0.4839345551312591,0.4966945597139012,0.1550857613717366,0.08622127350638648,0.4864648649646245,0.0011401053964038542,0.06393983052326975
80,0.8470761458321433,0.3039149291756811,0.8156676813280942,0.4566459815012675,0.5089918669416433,0.14715684601207135,0.09157947843294209,0.49141717126724554,0.0024536396228630455,0.07658776017167623
81,0.8326511490958938,0.3296953692192082,0.807241256770883,0.43049078632533955,0.5182813221808411,0.15415372810663228,0.10228259452340012,0.4974292700301986,0.0029059773794943744,0.08814082074243454
82,0.8114560264858571,0.3599060187499902,0.7934623233062275,0.4086759255076997,0.5239803855779769,0.1617359392643108,0.11893477796438215,0.5043120920096045,0.019686540010355094,0.11689762900105014
83,0.7896476733311709,0.39023944503745495,0.7784860897139902,0.38594795386760816,0.5265787127951576,0.14934051936401208,0.13846483937862492,0.5117937662099484,0.0013040009103145267,0.13760822338159576
84,0.7640807835567076,0.4232418765940143,0.7603177752047734,0.3654315042877185,0.5280011066065753,0.15591077596127081,0.15956957652833198,0.5197359645614711,0.02453518546421416,0.15474204777791314
85,0.7415783823525871,0.4532546498516236,0.7442591693475833,0.34004076106048176,0.5294142370634162,0.1377393096508359,0.18143049772267106,0.5280715755517281,0.0008683304569290954,0.13356532644873478
86,0.7182149520377776,0.48304508864310414,0.7283314985201181,0.3239844809528226,0.5328402110424919,0.14637158573696987,0.20284567016625107,0.5370269981961254,0.03518904967209271,0.12899121528413318
87,0.6982242427757843,0.510213568800521,0.7144498673879178,0.3053540322060391,0.5346820916514671,0.1240816960257904,0.22335198473948165,0.5464027805575948,0.015996071310266584,0.1167638235610943
88,0.6796562953679788,0.5328167239585498,0.700968055721485,0.28722869865387407,0.5350454867858678,0.11276096411597003,0.24190859373410578,0.5560722487183256,0.02550054896723545,0.10755774380298094
89,0.6631963401305884,0.5523436631412728,0.6885731127152561,0.26677666650887244,0.5332404206303268,0.09562161816581431,0.25921236041148693,0.5658976426366457,0.019906926175287467,0.09139738370781304
90,0.6499532843745661,0.5653503299747448,0.6784060436282654,0.2508827543356398,0.5329958827658591,0.07933364524629796,0.27453471939753205,0.5758032532380932,0.0025430521779089997,0.06948802037969536
91,0.6361409416193539,0.5767011906574114,0.6673175732263261,0.2388701898076611,0.5316641920863537,0.08173994791120476,0.2889301239439162,0.5856936838731306,0.008001012425004691,0.08274293417692365
92,0.623567156107726,0.585810427063176,0.6572411514676063,0.22581753745839978,0.531735191247131,0.07921335287965409,0.30387516460919606,0.5955571194108792,0.007847434996733859,0.07440813492244745
93,0.610848407081289,0.596107988119959,0.6469393703788793,0.21049898316008256,0.5311169518906231,0.07998479125330735,0.318694668547036,0.6054376658261107,0.002292856504201387,0.08049058769332122
94,0.5968315909804995,0.6076017637899139,0.6355793177037464,0.19366429549432923,0.5296551872441245,0.08429610389564314,0.3334610783535796,0.6152807037605075,0.013238168691354298,0.0873021772198816
95,0.5833399136728951,0.6181460299586098,0.625091385851605,0.17845984253477465,0.5295958704047874,0.07903061685819489,0.34877568987050944,0.6250021434493793,0.007527875064994254,0.08136596488790153
96,0.5704713123081786,0.6292145264868765,0.6153207189699903,0.162668797804916,0.5320428401655982,0.07953102083884704,0.36411609331059325,0.6346772425263347,0.016737258542479996,0.07341292256435575
97,0.5584025937128054,0.6414893517287166,0.6064806260496355,0.14629883201746174,0.5351651072176036,0.0754363099853626,0.37865958419079226,0.6443475736177948,0.01659429452879356,0.06489849534271858
98,0.5468318862091633,0.6548484161498851,0.5979725469546557,0.1285679579515664,0.5373493735812446,0.07146784768727427,0.39188298961105,0.6540195447219858,0.00559694216015361,0.061740792733910546
99,0.5310495987046747,0.672188803831719,0.5858873156533543,0.11260732188160562,0.5379046655218614,0.08420702740964983,0.40676057800980137,0.6636216780625993,0.008562906305611406,0.07372544697489515
