Frame,Center of Mass distance,Symmetry,Grounding,Arm fold,Leg fold,Kinetic Energy,Potential energy,Bone length coherence,Torque,Center velocity
1,0.9318974067161513,0.07432728837422219,0.9999997896859472,0.9065542690445078,0.96685856641363,0.28056424145949777,0.14547891728168552,0.2545901462284588,0.0018425342395683333,0.5351555234128531
2,0.9266283546892445,0.11657538240462785,0.9971820242638407,0.918560012587132,0.9907707752769841,0.28056424145949777,0.14547891728168552,0.2804771911626034,0.0018425342395683333,0.5351555234128531
3,0.9143271561374698,0.11701330259516222,0.9857935556828246,0.9347761549554044,0.9999984243033545,0.2633848789901824,0.13128537401058504,0.29136455433710795,0.11079079317654092,0.25940704357096434
4,0.9071936795116802,0.1037801327367032,0.9775012745834795,0.939727533141934,0.9964926902272606,0.21270346885672078,0.12971317399563803,0.29983377560554236,0.09020758264023396,0.17781795345066015
5,0.9028871942188841,0.07888693150010206,0.9716644747805452,0.9371253422516572,0.9899311695250592,0.186579439700875,0.13512746701522296,0.3044185461377111,0.0014390151658707567,0.23906954194894262
6,0.8971867509377935,0.046416355005936105,0.9641599380224221,0.9378860958217786,0.9785183629441125,0.23322173825482143,0.14778422535889563,0.30451405080529964,0.1069485850422845,0.2879407384574443
7,0.8936836237186946,0.02670819889166037,0.9566129111507888,0.9428990530954722,0.9481401129989082,0.1890727790816915,0.15622041870925726,0.3020354549651861,0.032588833961193664,0.2107148770659536
8,0.8748755487650439,0.03703056406029046,0.9389621825513165,0.9481773938233679,0.9173393276344189,0.21344130188615776,0.16369887773295136,0.29635440474666247,0.10103199571382583,0.44049703195777856
9,0.8591504025452474,0.04217976426492585,0.9252412303708901,0.9494811007476388,0.8971104621853346,0.1550389445636802,0.1773142445409933,0.28789214135506214,0.030375179797000235,0.3182659565158291
10,0.8435563119941873,0.04759518291475165,0.9116807342770011,0.9555355715230747,0.8827862605372525,0.14020951445861812,0.19223232995076595,0.278356166101924,0.1083677807487329,0.23825150676307771
11,0.8332278296723851,0.05211469646372669,0.9005796330426047,0.9674291008831207,0.8687563081979474,0.09494523801226414,0.2048087263734361,0.2716293312090752,0.01796585781233814,0.1398866512339447
12,0.8308004765760291,0.04375206290859754,0.8994402271040611,0.9714158473684831,0.8760039392864641,0.10268935047063552,0.21236660019886267,0.26454820964556836,0.12841016941879743,0.1636140498693673
13,0.8290540655291471,0.048739700435340816,0.8958649076845427,0.977983003249237,0.8714620815980512,0.048051617702622146,0.21513457906312283,0.26097365492169283,0.03501301544120247,0.13049981920855422
14,0.8262436661644322,0.05500874903002799,0.8928386052579812,0.9779975717339386,0.8725068640423338,0.03474721080090172,0.2156146392065272,0.26032366929537354,0.004070319832488056,0.06664823810940362
15,0.8249332497320224,0.052276630519181994,0.8922454209101929,0.9786279465019058,0.8773296096213188,0.06319019553783561,0.21814208590453174,0.2587883424343698,0.05283474665677986,0.10706113350069194
16,0.8242672191226057,0.06371943628827842,0.88972340904132,0.9811655012263074,0.8715131295535972,0.06599023651876273,0.219552800390573,0.25929981370612004,0.013697121968034633,0.1852745533764673
17,0.8220760384894517,0.06015959215728253,0.8891660058417471,0.9808246900602758,0.8729456809265843,0.07926139643566048,0.22251596995617448,0.258252773799886,0.0014821052399384145,0.18728585032523717
18,0.8118736767381681,0.0806562321903977,0.8785317367754979,0.9829112448641448,0.8597750204559556,0.11810256802890473,0.2269344166667922,0.2596224341094508,0.029278839683938632,0.19809363768303134
19,0.7989850896861763,0.08957421739048113,0.8667256351051347,0.9846870979409524,0.854550804574024,0.11650310223857953,0.2338677326179237,0.260608592002547,0.11514092297230093,0.16657130486533026
20,0.7908459892765948,0.09527125595787275,0.8596135728165172,0.9859566422036712,0.8507968507636466,0.06212546691758057,0.24471239728012562,0.2613353390677236,0.02298534960164787,0.089496638143314
21,0.7835145888312087,0.10266363516811165,0.8525221965042159,0.9930192047638834,0.8442156900882999,0.09100893712239129,0.25370924960238245,0.26123026708398506,0.06648818131809481,0.1566855825912888
22,0.7777843141152514,0.11289847103315602,0.8471801828914718,0.9902387083800025,0.8327345472020644,0.04967808699148795,0.2602658100699089,0.2611069266417719,0.036644972403945375,0.09843315694144988
23,0.7714318800040838,0.12080177853863439,0.8412147945871291,0.9909175851804962,0.8206288687965708,0.046679588688692354,0.2648150524614926,0.26086614351463716,0.05275757292809537,0.09212808525397
24,0.7675909519936084,0.12091985549376366,0.8365201961249399,0.9913274589714198,0.8046232331317189,0.02884808200736669,0.2699016635489253,0.26063737243091856,0.03296057622343359,0.04246516527490678
25,0.7663510604111826,0.11704331270872802,0.8347915194016944,0.9899935683696293,0.7927922083703342,0.02626736913326194,0.27359837944955456,0.26051652803473463,0.03521644131298865,0.06931252410338327
26,0.766932893406119,0.11130352150213635,0.8345103019399259,0.9902504287351833,0.7873819415071552,0.021646643660239027,0.2749625942214835,0.2603260648421921,0.06259283087949041,0.03742616399374863
27,0.7679658890722554,0.10745656974424767,0.8353656950144924,0.991702031496945,0.7892110621965194,0.0022349949733561684,0.27489267396607797,0.26005793797157617,0.016809358029267675,0.009978399503854634
28,0.7663897823138033,0.10553945173543185,0.8337421254141375,0.9931722202774357,0.7913828505217753,0.018019192145043328,0.27479786809161993,0.25967555126273256,0.05885113895445633,0.04971499783288945
29,0.7672019530916553,0.10391844191498585,0.8343420187272159,0.9945325722312673,0.7928949104349301,0.0,0.2752428326421377,0.2589954440478535,0.015515861474403689,0.0
30,0.7652549367915952,0.10412953299957708,0.8323393925879332,0.9961970624301393,0.7945967573083472,0.014078280405389658,0.2772564505742458,0.2579811254146486,0.0451005955389388,0.01291819132997539
31,0.7643670704831351,0.10525233498037799,0.8318613788109683,0.9970066095200202,0.7937802293795874,0.011419588686192196,0.28097021722872445,0.2565144320341372,0.02265168212972892,0.004496534950682119
32,0.7637470346903644,0.10732192051511082,0.8314946220417406,0.999120902329696,0.7912706564726416,0.01781871651930557,0.28478527242600543,0.2545875942612506,0.0026439387641956752,0.01020860267772612
33,0.7562967993918669,0.11211587955992475,0.8260514148691944,0.998415100551578,0.7945241278736913,0.06521263246791381,0.2931628159937699,0.2519702388089934,0.033626700464735884,0.08544769028737209
34,0.7561495786913289,0.10770728037485601,0.8268005826599927,0.9999995548399816,0.7953236236944139,0.08560512560995637,0.3048535520942242,0.24771041162010862,0.05603120265363165,0.09189785570855873
35,0.7524725979021387,0.11324987092949429,0.8232230269187117,0.9964820277024304,0.7871236422738753,0.04840697685881597,0.3148831233712627,0.24324825428631913,0.03590542975070635,0.03805407563672794
36,0.7490740826631166,0.11261961676112893,0.8212410867557405,0.9936413480820443,0.7906754327374437,0.05527691406008188,0.3245198162718289,0.2380135774469929,0.008700384822243454,0.05810362485057187
37,0.740947927316508,0.12738061865730602,0.8145818796242489,0.9758816784235058,0.7897198098297284,0.12061239740121207,0.3368704829214471,0.2328031135929947,0.005600902574062677,0.08277531507272709
38,0.7348513667388286,0.13903868462879548,0.8097486292127185,0.93863906209959,0.7968532895074273,0.1589212348380184,0.3542139722530358,0.22793850751301514,0.004407301161828542,0.15665518217803792
39,0.7306633332917319,0.15567550537153355,0.8052854900530609,0.9008805564512025,0.7891471416860343,0.19843437250589963,0.37099164399716256,0.2224532235707814,0.17099307708310588,0.1879742678961034
40,0.7279924786311469,0.15527488331048703,0.8034908418377898,0.8830778736294573,0.7888575099547872,0.1052389001911924,0.3839274207803004,0.21560315015018308,0.01317384355853935,0.07809381714420285
41,0.7314702141928536,0.16253272165818292,0.8066328739156161,0.8933757708436216,0.7728398875389731,0.1909874809824731,0.39007534273746325,0.2063570869234535,0.014015828142006543,0.11106850402763592
42,0.7333276060940677,0.175039140317252,0.80797298973244,0.9106959631491147,0.7606575854942249,0.21007252584895206,0.3869831817051126,0.19348150028275413,0.0034285705367181098,0.13922881858111505
43,0.7214070924586133,0.18766265386261183,0.7970664484914726,0.9197102434009691,0.7393085473706006,0.2910428740043148,0.3909491294174502,0.17660020218271627,0.11621603338397532,0.27730233270161736
44,0.713515876984369,0.20363457161786577,0.7899364956287498,0.862533573412773,0.7030425980808407,0.2221394959479701,0.4075688347536426,0.15629972427378702,0.4134981005989307,0.31003663035750006
45,0.7475144987653687,0.15672549747702738,0.820542795285064,0.7626961259591011,0.7119075543639232,0.4791608956671532,0.3947329810604899,0.13710299858617694,0.13497052114573357,0.5950010201839953
46,0.7771413207107336,0.12814362410706012,0.8474099649526797,0.6552706340574925,0.7196981518199496,0.4147095855263391,0.3633530622005783,0.11839123690228402,0.00744013661382172,0.49030568284619414
47,0.8211893236479828,0.10261519178249132,0.8857304565324523,0.5880962261161352,0.7350249535028405,0.5107210674962375,0.3217643395385474,0.10461918587894428,0.49285845154196584,0.4139477290312946
48,0.8445806599050685,0.09725042992414491,0.9052473956436289,0.5969224842000033,0.755827521990579,0.2676369991146959,0.26396780072273823,0.09399979200264028,0.0034879651404683284,0.32011966319269286
49,0.8208983313034472,0.13123993560877673,0.8888439755077922,0.5772787572666421,0.7784933899695659,0.22947151004130945,0.2600825398548247,0.08122368807860461,0.19052873352657457,0.09891679908570605
50,0.8495185648965227,0.12930526997661407,0.9150061447394389,0.5365672144657806,0.8218266262288764,0.4693795070819928,0.2763106616064682,0.06988194678616458,0.0016075143799863867,0.8471296713650099
51,0.8896873810563729,0.12096514204881961,0.9477185004166028,0.49626903711245474,0.8492767058693036,0.5957850741091044,0.24579472799318924,0.06456216766412544,0.4400785458796016,0.7443305804988005
52,0.9147224237230919,0.10304911556780012,0.9662699076063557,0.5077797441905205,0.8505796357160472,0.3111833917799001,0.2004132426984121,0.06293231419355642,0.12233942209366551,0.31176274166636964
53,0.8991958832361854,0.11569221326717663,0.9517813379805822,0.5048251493330147,0.8384372972396853,0.2029966552671537,0.18257486370585824,0.061862975732259726,0.07921768859182796,0.36451178494034703
54,0.9050142148331342,0.10741514591743548,0.9593971317464424,0.48051960440406855,0.8723965619379275,0.21944360211053768,0.1953450156965193,0.058963867856105925,0.04904364456484678,0.5377259057778401
55,0.9324640091327114,0.08643913124804892,0.9817458132907491,0.47870622106045935,0.9231446632043321,0.3131134100759609,0.1836845922135694,0.060495609496605415,0.0006542062451521704,0.23600972526493863
56,0.9596568018186049,0.05983898980617927,0.9979457281461016,0.47960506607686565,0.9440630107283654,0.3165303809589264,0.1487962568469804,0.0635039301698219,0.4268077931115326,0.17943588266243662
57,0.9443159409017663,0.0756144103832445,0.9888718525903879,0.4773950724929136,0.9095829608436734,0.14086885067034133,0.1419536035794906,0.06641799464184812,0.027070938454181636,0.24119069906558915
58,0.9192406359547656,0.09027314959506397,0.9691469355551974,0.4476973534043081,0.9107342030150662,0.2566428294294576,0.171674448580535,0.06638921714756739,0.03386212950786211,0.3656247682030058
59,0.9127837680345349,0.07147864417297314,0.9622053928010549,0.4477926218260635,0.8893206615558545,0.19823814220066543,0.19546163228117397,0.06728770428297816,0.04723413098349176,0.3592682675446821
60,0.9238589903058647,0.03845565787459372,0.9690910275111094,0.47321133824484524,0.8807091852940027,0.18477121156959797,0.193400306053886,0.06855142153358916,0.03232550550537627,0.0579209540616157
61,0.8953340036272439,0.04894809866229719,0.9432212573500487,0.4801466779791504,0.8097778071621496,0.3145234088974867,0.2020014180600748,0.06850393541724994,0.002881219704772545,0.5505812135588416
62,0.8643601739205572,0.06803291981670391,0.9217760497982288,0.4615762996792971,0.8019589945731337,0.3523895903548371,0.23322648963141512,0.06502639363271291,0.28461405449056204,0.4332923161470829
63,0.8733762987878283,0.06481619431567476,0.9315705800422542,0.4239023775890964,0.7891132254573323,0.20796641285254386,0.2511112078154348,0.0603561859520758,0.35021252411427745,0.3472178807901936
64,0.9237211035381109,0.022634538935350203,0.9743637151491831,0.4237965068071054,0.8347599679712574,0.48719319222279983,0.2300591173957925,0.056747833737735384,0.5201162120575175,0.6929362769163122
65,0.9426928948044215,0.0,0.991599046981071,0.4531492287648534,0.8551691887500532,0.20227064960579738,0.2036445776623047,0.053215514648448065,0.0035750705217026946,0.1277577937097844
66,0.9431993023599915,0.021508555820934427,0.9935737190983085,0.451593649575019,0.8404003307272441,0.2533988933575168,0.1874753993383953,0.04863805322730153,0.005897744808606329,0.14164503769824022
67,0.9217661226965475,0.06088909739430348,0.9812711539964316,0.41525186858787727,0.8397256921474948,0.33945851341280375,0.19290817198207483,0.041758379078770204,0.37224313499297373,0.23464019563056351
68,0.9263583571272515,0.07004167064743459,0.9855285515538401,0.40418676285361527,0.8330830526899158,0.1255812136342551,0.19694426673857893,0.03565660179268221,0.25064099586127564,0.0769010105009194
69,0.9617371296293469,0.03466170916805779,0.9856079409764482,0.43275432500178124,0.8610254451613986,0.38863979442037,0.17465381383543835,0.031114480552345686,0.23256040188200666,0.5902677231732222
70,0.9432329834239369,0.04186794109659913,0.9983320527307583,0.43900981178195453,0.8445500384014925,0.2915573275980262,0.1621630783036726,0.02668082912928198,0.10937606609673346,0.5997850920749694
71,0.9091244775502846,0.08682101337775867,0.9701225309245585,0.40915061103943684,0.8025404927210118,0.3912059821587596,0.1687933293401429,0.02132508597527887,0.376177285351069,0.5449968652493455
72,0.9100095205722584,0.10765186147889073,0.9706939111351528,0.3587271837777119,0.7917568446477565,0.24762630243674796,0.18144782524969116,0.014431352949730867,0.029551160361248267,0.4727791848678727
73,0.9157678979925918,0.10232564204325033,0.9734954632244728,0.3542506917494066,0.8011879163641682,0.23571149285863363,0.17562362103756826,0.010029659948275859,0.3775128533925402,0.18554250950029777
74,0.9658107984668731,0.06259518352379562,0.9836522775941985,0.37372129762514505,0.8706581740002439,0.48982678837315236,0.14042037165191726,0.007357882288154709,0.5616256388352155,0.6396966934704947
75,0.9607699615762398,0.06671109034157513,0.9889540374151998,0.4018230459092283,0.8672988386003991,0.2687305828450631,0.10565058658573351,0.005171482503882416,0.11282332594664464,0.5900140963440225
76,0.9332904484745349,0.10266241809907733,0.9863845037088503,0.37868433742578383,0.8220624519709062,0.37477476553518413,0.09247220943887022,0.003003219929212533,0.38299871321869894,0.5954669468207536
77,0.9390048189752165,0.09992284818777404,0.9910382892988531,0.34048273844012306,0.845478285725031,0.25192849751462504,0.09981102145313019,0.0,0.16038522658576926,0.5735998200152197
78,0.9366062437954026,0.09013088198572056,0.9858377230376538,0.3488518661483951,0.8406040911179061,0.3580919330100025,0.09262160734157554,0.00014046364417289744,0.32179070187519204,0.33608533513593425
79,0.9956323286115635,0.03623157075462815,0.9656213742949182,0.3840543091526869,0.9309322176542142,0.6223931309656966,0.05456490935794184,0.0021892148987627596,0.9999999994267896,0.8244851001757931
80,0.9999999639877564,0.025367503287517957,0.9617167564957136,0.413380572805876,0.9453962815439253,0.20169978025072927,0.022475899797429054,0.004651644591188208,0.4879998358003804,0.36115669274331363
81,0.9583569219527838,0.0401295962392445,0.9976304067774368,0.4178267313333431,0.8974904953843478,0.4346225062304357,0.025893636512215178,0.00677084335969114,0.39216808404535414,0.6645830644190143
82,0.936237604283225,0.06995235171216117,0.9807305232100862,0.3789946059889917,0.8529461193667,0.24506661923970732,0.05300911216450493,0.007898696046007743,0.14900445423577882,0.06925850536725761
83,0.9438918249353423,0.07075703291545571,0.9848990269773928,0.39925415234650874,0.8627628379044141,0.20600025245482675,0.054283607265799116,0.01144620094121929,0.16459235018599808,0.23725357868833485
84,0.9765929316740293,0.04791572860460797,0.9881534342238387,0.4078519706558059,0.9005754168178698,0.33100617008805666,0.027178854831987793,0.015541982586852087,0.42220838099130237,0.21041291605775744
85,0.9687960573283088,0.04822355677153935,0.9949540887068776,0.46473529798825536,0.8904511345688606,0.29124789217866154,0.0026512327524036874,0.01987433567884258,0.24184849834388597,0.5226050030936163
86,0.9338423873569733,0.09687375053588475,0.9735429850619494,0.4752629637853351,0.8178696199665557,0.34408328376677066,0.0,0.024855440417192634,0.181829115274132,0.28383204845198884
87,0.907823319338085,0.12402752599824644,0.9518025830373349,0.4478059847821269,0.8028042513756918,0.2816285945720063,0.028125641840410814,0.0287916640824723,0.0020212293786138666,0.09121457113538937
88,0.9058683457450233,0.1384047180639697,0.9466808471183024,0.45102629230315844,0.810305328280283,0.3741944281653399,0.04077053883105692,0.03410147951718971,0.01507347348548614,0.4369144189486665
89,0.9127913023466299,0.13981566290753256,0.9508896046773543,0.39905922413996253,0.8409095796300396,0.4313823268662436,0.044065570814886754,0.0398402836652174,0.2620105766321068,0.27902648400782754
90,0.9010646394616221,0.1383482273101255,0.9390790303634636,0.3730163115717068,0.8200307665376652,0.2206339907853839,0.0692670501867149,0.045192130934843026,0.05047172486955491,0.21838419856825803
91,0.9043006222724839,0.12497326282431108,0.9397063186181482,0.3403728372969347,0.807203615785448,0.19831173395281512,0.0815336551743449,0.049920766249683966,0.0009458358059235154,0.30234768651659594
92,0.9288622055419029,0.11384586445755077,0.9610195831859172,0.31124456022516733,0.8188208753864552,0.22130973068961463,0.07193174109523973,0.054329459593280775,0.10895565519320176,0.1499681581790165
93,0.910167776937406,0.1269863355333162,0.9451841887780298,0.2959919107253147,0.7974998699650093,0.21481023282148964,0.0732826648405465,0.058953229416049815,0.28173316118720754,0.3075655788421646
94,0.8692092613141603,0.1554948233667394,0.9072533762655589,0.2916905732828361,0.7177284989943615,0.45870296143294403,0.09764557171450779,0.06337530941464825,0.1255819845537837,0.8316906616837758
95,0.805146673004594,0.20098206778190977,0.8508024650680255,0.32968729307186123,0.6619873906801683,0.6097174848363864,0.1462276737460786,0.06714217241434146,0.47332872218127575,0.7376173051099785
96,0.7937724817312906,0.2477376574312619,0.8401290603709134,0.31258252995033087,0.6636838326377852,0.39870750847276015,0.19591049511558659,0.06962085451623698,0.4035324232704336,0.5103553400361327
97,0.7836901600996075,0.22060979436836997,0.8334670578372156,0.34335026969561727,0.6619897110322913,0.18067903095594623,0.21920916247684677,0.07368537120691333,0.29449804045437794,0.3694558853259878
98,0.8002842696999063,0.19706322971418283,0.8413199017100175,0.39989719165558174,0.6674136674336532,0.4157475883948761,0.21685353548495145,0.07926248813865387,0.22680569638512557,0.6725217078006762
99,0.7811946410843197,0.23389696104223956,0.8222675584452233,0.35937922882761514,0.6436601716362703,0.2985145912144956,0.22277811014370436,0.08524572848928307,0.0801873339600451,0.08370330314947941
100,0.7582158341479509,0.28985924484939335,0.8017705513211582,0.26735099283788705,0.5862327646679626,0.33783923378574815,0.2542254993986733,0.09039338087439218,0.14945868301424609,0.4793083736829388
