Frame,Center of Mass distance,Symmetry,Grounding,Arm fold,Leg fold,Kinetic Energy,Potential energy,Bone length coherence,Torque,Center velocity
1,0.8281541939220964,0.06266658207117225,0.9999998458358053,0.99999982747835,0.999999376046673,0.2404478283290672,0.14942655424826354,0.7395652585889493,0.5468757444940257,0.2775815352329037
2,0.8119712561539163,0.08440271122208101,0.9795667770500295,0.9960031914735182,0.9688026758804534,0.2404478283290672,0.14942655424826354,0.725013393586041,0.5468757444940257,0.2775815352329037
3,0.8050397078902001,0.089203043751604,0.9721939589992394,0.9960502263876584,0.968532526811422,0.06944109870577977,0.15395598436842697,0.7066719680885376,0.013730424469460338,0.0872046815832855
4,0.7964126141109725,0.09530005110443059,0.9641728831512733,0.9976578776687577,0.9699961339369526,0.08547167203501455,0.15623242448094635,0.6849813074369255,0.159861118785709,0.10153222682023998
5,0.790655823847992,0.09934149523343043,0.9576605880571797,0.9980191584147688,0.9669962925376253,0.044483946638912426,0.15910491495629153,0.68000661024285,0.08510097806166574,0.04708987577014679
6,0.7879015071988966,0.10066698114656196,0.9546668002473002,0.997618879566394,0.9657719814348958,0.027791271674333963,0.1625004587266036,0.6851022809861442,0.03875346869609983,0.011022098616631136
7,0.7832808560610992,0.10304188157603736,0.9499511174633899,0.9982353445617757,0.9658529509352358,0.03065708241266254,0.16596192825579228,0.6932808545444117,0.06527734622191136,0.02563661422883843
8,0.7798576164581551,0.1047798956127879,0.9462373262324153,0.9977387341226948,0.9653372577734917,0.022877192975852587,0.16884158745640465,0.7033904147983446,0.0520866620966062,0.0278713245908512
9,0.7790122833275288,0.10589807727898107,0.9448580272258507,0.996513111891543,0.9648631935605393,0.015177639556632979,0.17046133540895725,0.7148095634208811,0.04360269372200913,0.017837871734662433
10,0.7792204413570728,0.10642005709863167,0.9445251954557219,0.9953646094701942,0.9650695898001992,0.015629882684148402,0.17126780880199557,0.7271641861051898,0.03809101115073927,0.019263100560872604
11,0.7792928016773893,0.10700672166776001,0.9443057132807774,0.9941781129366667,0.9658577691547088,0.016645868395592407,0.1716609777175897,0.7404571988687388,0.01370250836034354,0.01576442870271707
12,0.7820317627891585,0.1071978825053732,0.9465264313796834,0.9930148258637438,0.9664446628886499,0.031179444819187805,0.17154701574211512,0.7543741789440589,0.05142508178132816,0.044675839841710835
13,0.7841438416674011,0.10653284385008666,0.9484733274228071,0.9915422251637103,0.9682915324966359,0.02301607349472269,0.1709149167231825,0.7685234343120413,0.01908839990745191,0.025698019537702718
14,0.7886350700349468,0.1053846052964441,0.952199005502713,0.9899859681909166,0.9684524613570366,0.031095437750184286,0.16942692882011348,0.7825555832725136,0.11362046082616946,0.03840574320111328
15,0.7876501735618717,0.10739106422763778,0.9511644251152099,0.9886573329756569,0.969676348528251,0.011044290857156308,0.1688314179318649,0.7957858137258483,0.04565071727231781,0.01724573006251272
16,0.7860735313122731,0.10884939319439653,0.9494493226262816,0.9881861010502963,0.969646226897715,0.004557966324116182,0.1701262030488354,0.8079852458961467,0.010493211683192543,0.009903747374611372
17,0.7816544878694651,0.11180981344305603,0.9451810947986419,0.9869104094191344,0.9675963011566157,0.026557777387977922,0.17269884587768622,0.8191154212873271,0.06958435421066339,0.0220412827021199
18,0.7788676177915939,0.1138506464524574,0.9426351864753509,0.9865596301202146,0.96777013776486,0.011361517926428645,0.1757363863492354,0.8290327679684304,0.028600988732119702,0.012400520846303319
19,0.7755635674860037,0.11668867878422148,0.9394049352777655,0.9853136687708152,0.9657534579795087,0.021295658131496885,0.17822009278102804,0.8375243584365709,0.04979273073295767,0.02863099807473294
20,0.7729148621064378,0.1170418770542391,0.9373238876538248,0.9854832508255146,0.9677183577365213,0.010756311442181954,0.18059037289503138,0.8438475588104127,0.06056376424761221,0.01984325669965294
21,0.7714474787786499,0.11803913703965975,0.9360133625589443,0.9846756807859884,0.9661310543830284,0.00515384473547834,0.18258143756252995,0.848480595846276,0.04960722671788352,0.005804355639347098
22,0.7697789001460472,0.11796179834531341,0.93468670531194,0.9840119086409483,0.9673894741720238,0.001712241795076961,0.18447520196938302,0.851625773069103,0.021835011549245907,0.00913745034114855
23,0.7723592966857181,0.11822471945789875,0.9371502547533365,0.9835976484039883,0.9675040754026529,0.010128109048953695,0.1848125512005639,0.8537052749775288,0.047580533790720636,0.02067092388861821
24,0.782706207101384,0.11776199757212767,0.9469904430183957,0.9828104408109842,0.9669826322487503,0.08290769264255453,0.17976059283428228,0.8545971294710608,0.15742812112520357,0.07821684359254095
25,0.7878576511420322,0.11616101772191965,0.9522057979878172,0.9814259649242496,0.9679277336709509,0.032968624944692146,0.1734862981094106,0.8548507157031775,0.02347604413781487,0.032757533870574104
26,0.7947505483447614,0.11301132408572084,0.9591430479312714,0.9807087592147226,0.9727028323068678,0.04670666491936409,0.16907930979084723,0.8546199822211861,0.08835496877597653,0.04776206323834335
27,0.7987898995212324,0.11080363030517845,0.9638009945917927,0.9792137363682315,0.9769058213139465,0.023876002941350227,0.16512028062047218,0.8539567637588548,0.030424195307991984,0.025484041269967513
28,0.8032545969520718,0.107208747616049,0.9691950768255313,0.979636290699172,0.9809632176580507,0.03149996786276383,0.1617337505755142,0.8521346355109225,0.05205909557855217,0.02501485794127846
29,0.80517198140605,0.10491421214976511,0.9719031557306956,0.9804585100419873,0.9858870855274777,0.026506450783529575,0.15870179412777094,0.8490499958414219,0.058174365767956676,0.014654119801492357
30,0.8076207306173158,0.10241611153777748,0.9747139709730672,0.98110966426963,0.9868448106141852,0.018203638119901507,0.15680583762602004,0.845287196291032,0.03882090868031758,0.021594156045841174
31,0.8046494076310561,0.10144810280827166,0.9724885830406542,0.9818036233846184,0.9879711065235455,0.019105570195585776,0.15714381143275657,0.8411745830159679,0.01074206856986624,0.03476872771919763
32,0.7986122373135931,0.10092823001019616,0.967074123351601,0.9834578811088684,0.9861032464202247,0.038571610624743784,0.16197258234658862,0.8364066550762952,0.10058438514075316,0.0415058250910341
33,0.7967456110948367,0.0987409755401336,0.9654710968669011,0.9849312078747324,0.9829295176953614,0.01894905120792009,0.16700736915016073,0.8313525285086341,0.0261020409428983,0.03943486427637921
34,0.7937134802455815,0.09658189486151576,0.9627969803872598,0.9855119540680541,0.9776537185428092,0.030621998867324304,0.1701140630947055,0.8259933587444482,0.009037774202079954,0.05288194901378983
35,0.7898219775187765,0.09297657508525277,0.9591697933413704,0.9854954289721213,0.97123964701641,0.05426851201268794,0.1739192417613537,0.8204681500395345,0.0048802707266490716,0.07483860937931067
36,0.7805985551244516,0.09183989134741108,0.9490400753987267,0.9811973509939792,0.9584335599841557,0.08006243578233727,0.18141501336768123,0.8152029608050316,0.03478274450567403,0.07446349689106116
37,0.7634418103900396,0.09854177169660591,0.9304176284236606,0.9678075377988012,0.9308782704144495,0.15469968316008811,0.19634382027840513,0.8110599119644544,0.03908758753925197,0.06417571930328471
38,0.7398537304709867,0.11068891822825032,0.9030358473758175,0.9485658535714165,0.8871268091739803,0.22956281923589647,0.21953140028978474,0.807174985405642,0.008306435170067742,0.06725947326524648
39,0.7120053731697914,0.1240845913097213,0.8696613963443851,0.9317418689611014,0.8315379302910414,0.2771133852620518,0.24938157363868427,0.8024797840455045,0.005232620386692469,0.11063766902409103
40,0.6822304090246395,0.14080744822329214,0.834846089410128,0.926632214693292,0.7711160123349999,0.31660464474224104,0.28309876236861853,0.7973068178461884,0.282414146679453,0.11324761034545616
41,0.6839260710053893,0.1628327455427337,0.8270512882222105,0.9312147776259253,0.6852454569898391,0.25799407910232486,0.30298908057843105,0.7854499069219362,0.5568745098622748,0.20275759343425603
42,0.654300218061703,0.20056546762783062,0.7938322152875491,0.9390108272982315,0.6251100811704531,0.44711681621280147,0.3237994420474381,0.7700512601362067,0.013615114537989177,0.17875466975105192
43,0.6209062363219906,0.24474808548253377,0.7608682850746309,0.9462476985568281,0.5874660221275607,0.4670392649206311,0.3607940149966333,0.7518102344369282,0.0889472332227897,0.25280253609828524
44,0.5976730205013479,0.289761485353893,0.7372550596689147,0.9535550264856201,0.5631158995475556,0.4504515451554505,0.3919744328009578,0.7306177456543466,0.014115162467081587,0.3605294554598247
45,0.5788383264376761,0.3333846551610314,0.718741292455524,0.9571142449982546,0.5453454357361245,0.47724864085724605,0.41774883897074205,0.7060677149424249,0.26709965253492807,0.38650251744046865
46,0.5591808618264753,0.3901584476620526,0.6996060128550563,0.9482344772304916,0.5281190941883485,0.6437430534783212,0.44188027179319156,0.6786702295674927,0.12956532229639423,0.6675023653075541
47,0.5403274839781771,0.44953841157974034,0.681650927541525,0.9238577594337931,0.507567012975557,0.7487426057493533,0.4660479588277126,0.6490992631192868,0.6019350387554496,0.7792520009946763
48,0.5079802773485692,0.5273234313749706,0.6559863716342021,0.8883325997715673,0.4898227039234274,0.999999990421604,0.49306198418177205,0.6195140107054032,0.2550187815941085,0.9999999668320175
49,0.4859394010975006,0.5960261059807932,0.6354467457383464,0.8520243482803953,0.46205576587801594,0.9161396564115242,0.5190974945514876,0.5912431065702449,0.08519303053422102,0.9737315020353834
50,0.45815710510796115,0.6640892382317898,0.6112536119168218,0.8118971984773988,0.43987653460612264,0.8938213005913005,0.5442780227818153,0.5662579743622913,0.05015484693257431,0.9282177670069692
51,0.41491439337160735,0.73369873528558,0.5682949644027129,0.7715743770304234,0.40647016324344637,0.8932233041128793,0.5750984899499285,0.5465620467143009,0.4860139252746967,0.9008429051487669
52,0.37150339696866735,0.7925768391485171,0.5216857806751701,0.7439246255772977,0.36336916677740533,0.7545411941922311,0.6116113338266439,0.5327431290058299,0.8247318558764412,0.7175437191355292
53,0.33255909034846065,0.8362181518739786,0.47252686785146375,0.7510601272717957,0.30916777655772537,0.5261172415628157,0.6526034567263481,0.5247524307274133,0.057134188252590645,0.4184264232723268
54,0.27592155695635945,0.8891284018263672,0.4067866498266441,0.7907596838723302,0.2597282525467703,0.5867378663710602,0.7025849733900804,0.5233189317987244,0.11609934252994296,0.2589117798711383
55,0.21880143468869914,0.9352114850594836,0.3375058489410185,0.8373828530798537,0.21916167255249644,0.5814095920993524,0.7601758494336327,0.5285952381638733,0.027846629154080663,0.18108906731382404
56,0.1535428006851323,0.97508259886834,0.26270403125626146,0.8800076228761398,0.19585992111287065,0.644432474960333,0.8202746127566655,0.540346171614359,0.1421796527679351,0.2760200546143537
57,0.09655351803246146,0.995478970601065,0.192685396676143,0.9119915007325327,0.17454617071781664,0.6170382318770805,0.8782291350741461,0.557623342399658,0.22535669516824075,0.34646145870446576
58,0.05937292350286329,0.999999958610122,0.13670088538289119,0.9353461303762733,0.1439230953714131,0.530787242745574,0.9247003354643717,0.5799751835722017,0.0900574728848135,0.3173786958830006
59,0.028322927316432045,0.9911974206114998,0.08432191008925832,0.953234504494165,0.11012632789235328,0.5241231049119918,0.9601060315234736,0.6064628185629588,0.033145630595312794,0.38303705023352785
60,0.011582869953216316,0.9648839647354553,0.04240845622062944,0.9712994005839677,0.07428171734965638,0.5434085204300132,0.9853033739729952,0.6352993089531824,0.1519604796202589,0.44050994693015927
61,0.0,0.933171082908563,0.010797928664814637,0.9797819734189981,0.04566074704071075,0.5122293763599168,0.9999998555700785,0.6661271627902237,0.09300910118017462,0.45787148211082823
62,0.02536967374006613,0.8905813708634273,0.021195525238774056,0.9782860079982341,0.023622960556615988,0.48480380144144253,0.9920757073061239,0.6986085329249297,0.12221934721453984,0.32568367577961504
63,0.016271873549916802,0.8493356522165936,0.0,0.9723192234084372,0.006542289931419121,0.5845092631817591,0.9853044002364985,0.7319610339478981,0.21873580093081343,0.6227357291065155
64,0.03261145271492816,0.792711203872071,0.005933235738921242,0.9671876167395392,0.0,0.6889845723979339,0.9880688229305944,0.7640240812331863,0.2173353551580887,0.6248517004724595
65,0.06040601290900681,0.7243372661256138,0.02817098291094212,0.9669067730757274,0.01040403091496828,0.8043663007313973,0.9728682080262905,0.7934519020560008,0.0926599537460979,0.682672750329423
66,0.0799812656114566,0.6550303632981168,0.05145137654652788,0.9717848417104381,0.041280027800123104,0.7952701741989561,0.9537952524896259,0.8195088005599707,0.04707223872433772,0.771574356728523
67,0.1147710082690812,0.5886250169426338,0.09399568246925155,0.9717322928423356,0.07798161487027422,0.7930328230010907,0.928484610069919,0.8411767319028891,0.35415322147366507,0.7060721029863095
68,0.15000482493783113,0.5353063071334284,0.13097991480349205,0.9627341251453735,0.09854657443111733,0.6966273039383946,0.893964655013604,0.8591478050957754,0.99999999926557,0.5464704469149767
69,0.17626526582841917,0.5065595491838816,0.16192010898554055,0.9432656155832717,0.11575382040870248,0.44984472813814647,0.8647941191506715,0.8751330415476252,0.15280302952510277,0.41626896492685994
70,0.19623902356741657,0.48798826012820173,0.1905742073995503,0.9226037603507798,0.12820895456670256,0.405458410924555,0.8330254304742707,0.8883088666934528,0.4083714526811429,0.46405765226451584
71,0.22033307609232045,0.47391788606893404,0.21959255282730014,0.9122688333747162,0.13499342890840876,0.2985113212126385,0.7934529168013499,0.9001495901997469,0.23189286661054714,0.22943537931041996
72,0.23694449261132713,0.46432919371389,0.23941514701429406,0.9050431459718665,0.14092701194099,0.23243268071785142,0.7575270981375729,0.9116565245479314,0.1873347502840867,0.18281914707678273
73,0.25610344215229747,0.45658098825258964,0.260518973704156,0.9029996612773461,0.1477378735334954,0.18502497781171254,0.7251621880476848,0.9238281959933321,0.26736725259566296,0.0468186274055776
74,0.26962446284354374,0.4487214956378118,0.27587211269228484,0.9084418014003007,0.1534974829077529,0.13066660608305852,0.6981549513840558,0.9367422303168791,0.11609889356523236,0.023740866922195944
75,0.28213623457381487,0.44277871139166,0.2868024948166407,0.9171283655091303,0.14859853377948484,0.09560100362020334,0.6789853073100167,0.9502988180747002,0.0591982221879114,0.03096468117320524
76,0.2924263153373332,0.43465838307638355,0.2965739091700142,0.9257886867278934,0.14318986383847193,0.08850415732486124,0.6669774321477506,0.9643823807676309,0.25308007782321656,0.1112442542118124
77,0.31010424573436185,0.41525309081767287,0.3113857720013649,0.935628117709224,0.14237445576048033,0.22869827858412276,0.6583976913316163,0.977265293092884,0.33616886345817193,0.2049013120470902
78,0.29604253945339537,0.4089200303740981,0.30323521440609075,0.9428498916263307,0.1523154562696529,0.15533320321965166,0.6582278166432316,0.9883644988078749,0.31828715547847597,0.23376755154037185
79,0.3077203534654859,0.38823661781156077,0.3155249426120182,0.9326192333662832,0.15211720904614476,0.2719316171744445,0.6620466943942059,0.9952858645703494,0.34584959868566006,0.2395324016707486
80,0.3229846803187063,0.3819265897006296,0.3347391848518273,0.9005832106679368,0.16098845193087352,0.1816062417827631,0.6551553609353886,0.9991336829223939,0.022253866544912557,0.1235997998731116
81,0.32989014908643144,0.3758307732246692,0.34756169860814945,0.856649148665343,0.1733731313532503,0.24426673640175253,0.6463418859218364,0.9998987785850961,0.10547389310115467,0.29631910521118227
82,0.3426570611748733,0.38082936215434393,0.3639982389704723,0.7909710811245587,0.1913848064547591,0.24512483859944129,0.6377172525005705,0.9982671084551644,0.1453465916077486,0.17982250485443171
83,0.35428668643465727,0.3919544068261776,0.37928642481978636,0.7251005168709818,0.21006918946486397,0.2372624518653549,0.624785650084625,0.9946521181185601,0.04303482553506774,0.15825049238174865
84,0.3626771685388276,0.4111462360875615,0.3913070008034405,0.647788107893858,0.22992782594533323,0.2711361825662775,0.6100735847213228,0.989832796872317,0.027475462296438772,0.15795686266418493
85,0.3723143441861344,0.4312941010366139,0.40389899459652484,0.574501770943159,0.25151354953906063,0.283151907339172,0.5933876707111427,0.9840172051435232,0.12180793520609132,0.12589970425353256
86,0.38909062617843215,0.4474913347650768,0.4249276794199165,0.5067824155338223,0.271684698791176,0.27362592666343605,0.5746916848471718,0.977426739208176,0.04508492070821722,0.1729025431560018
87,0.41696537822940205,0.4564074472012451,0.4553809373260246,0.4488999725152261,0.2844844284672586,0.29721835509401684,0.5515163434639405,0.9703013055666889,0.05184796791442419,0.22441131906588246
88,0.4518696407490972,0.4639459130212446,0.49110134290047835,0.39817847415754715,0.2919711222701371,0.3271288704880768,0.5221069822092197,0.9629816523635074,0.04386528608969375,0.2563326527334308
89,0.48425988706740397,0.4697704003881383,0.5264141993686512,0.35039017415806184,0.3117244172995518,0.31479072764693256,0.4919342756630539,0.9553703574495307,0.3566692196263621,0.26541908857019725
90,0.5051193771567162,0.48031910962783597,0.5505508706577444,0.30395484502600245,0.32856431135152836,0.22832311373330236,0.4678332682501637,0.9474404330066547,0.09776365156033834,0.17649388094525834
91,0.52296294400193,0.48864418929196735,0.5731409779945708,0.2593255470049787,0.3495026768219327,0.20753332167691743,0.44878281721355867,0.939103248997237,0.2962410033748333,0.14678318817755706
92,0.5290552405744159,0.5001865288472805,0.585020609912302,0.2289829432176658,0.37183010031939734,0.12228994900370412,0.4350002734488456,0.9305682907136352,0.06212869234079216,0.05651400984702933
93,0.534757902543689,0.5109817772483436,0.5953345740134112,0.2024249923117233,0.39268427281688567,0.1031796607335443,0.4250850970424987,0.9220147813690123,0.022799558964189195,0.03771633383076983
94,0.54440390462684,0.5150824053120263,0.6067650528535979,0.18643143116610472,0.4051351369217454,0.09151104768136292,0.41374456847621316,0.9135924382288524,0.08253130169667722,0.04917049873279969
95,0.5616913735911749,0.5173557324003133,0.6238494264827772,0.17096213184816542,0.4082513058299064,0.15098896267248413,0.4001961745318423,0.9053525941300623,0.06917407661134922,0.12233748690826378
96,0.5868539618234276,0.5180188259851443,0.6485091191249276,0.15564974408261564,0.40860429396033465,0.23063285487963234,0.3848924306274052,0.8970627444213956,0.00522753439783425,0.22889406212289948
97,0.6135586945136495,0.516902789738078,0.6772786897857187,0.13740738769756244,0.4167121235515015,0.25063953480804935,0.3681295141739318,0.8889552604284294,0.02887724010466181,0.24425226513749437
98,0.6394484986670884,0.5173492980054037,0.7062940635012336,0.12156872950945148,0.43977494730833294,0.2716594384198449,0.3513462115775306,0.8814153879607081,0.46491323323264483,0.3272677960054069
99,0.6498569151134174,0.5136918213747449,0.7242088184344573,0.11012945708122153,0.4633503042223311,0.12864849992866723,0.33560696530781925,0.873306321444644,0.10200140020248458,0.10176991189799013
100,0.6620859669869417,0.5102593988863394,0.7396753070177703,0.10316606167722475,0.4786463940236518,0.10798440229502573,0.3204452544398682,0.8647436825748281,0.0492494109698809,0.045180006562445287
