Frame,Center of Mass distance,Symmetry,Grounding,Arm fold,Leg fold,Kinetic Energy,Potential energy,Bone length coherence,Torque,Center velocity
1,0.3364930258468948,0.3718050270020872,0.6063459020432505,0.9856362267044975,0.6823373249719976,0.21072694936484354,0.6161040102038161,0.9406588127098768,0.2908156809928058,0.21849541977468112
2,0.3115547462507818,0.4066882828225867,0.5774264646141608,0.9860115795371468,0.7049542333582711,0.21072694936484354,0.6161040102038161,0.9666365910347772,0.2908156809928058,0.21849541977468112
3,0.3001824811081165,0.4116626680576118,0.557715878129918,0.9874435378288586,0.6953148556423728,0.08551402517990747,0.6238763056519397,0.9752346963476469,0.0796167899782602,0.05485286898483845
4,0.2938619554921625,0.4165224394530715,0.5465603208149684,0.9881600850323623,0.691839860058463,0.06054723996821654,0.6297078699809049,0.9791553611799134,0.047898082015345386,0.06272682787347003
5,0.28812006837985216,0.41977113711880515,0.536887300686348,0.9893770350745705,0.6900120221762862,0.048765102720232795,0.6322489881813252,0.9816423743353874,0.02168408605086454,0.04465092255730592
6,0.2820765376302416,0.42089167401856076,0.5257693787106237,0.9907391088354963,0.6871241964101085,0.05496834118055546,0.6357235837539559,0.9823041153701613,0.05164115159811816,0.043630365609856274
7,0.27808490817950887,0.4226463649592902,0.5187455912843021,0.9919690640455706,0.6857053239071838,0.04625165567049461,0.6382130806342422,0.9822941632570779,0.09903442312620894,0.04734333786521113
8,0.2770924846864607,0.4239700352045719,0.5166852409486997,0.9927472229109525,0.6838817271356152,0.009460137294132103,0.6389234146953684,0.9820808179494835,0.021564718516237463,0.007071756396857777
9,0.27569128136946797,0.42540361675904137,0.5141216101944391,0.9936317967402319,0.6841042557251352,0.015745883166269462,0.639196073291615,0.9820530293527536,0.026620239051513707,0.009986869891830482
10,0.2733547983350694,0.42926004974055476,0.5101691616280005,0.9939721590829562,0.6821616151890998,0.018349686857481024,0.6394963298832755,0.9821554992780741,0.025203228292922063,0.017053303803359097
11,0.27094705952407705,0.433761367192306,0.5065303408884347,0.9942694663544219,0.6830492725469685,0.020894843660700237,0.6397266254817068,0.9824871298132729,0.054956275477960656,0.021104203999412804
12,0.2704768934967596,0.4358202564142894,0.5051156949022759,0.9943937989562335,0.682342352682062,0.010569224043530924,0.6391914779061931,0.9835986876683319,0.031135372761482673,0.009115610269335933
13,0.2693329115123042,0.4369156399955481,0.5030479650883906,0.9945810032395678,0.6827055308545401,0.00968058951623,0.6386365139632857,0.9852497393494087,0.026747352051937182,0.007459818286447893
14,0.2695863462538187,0.43862005659242176,0.5024339924955459,0.9950898073386538,0.6785615896960973,0.011635029280751552,0.6374560048617014,0.9871838871405604,0.012864094929536808,0.00944300363060379
15,0.26864994712324486,0.4379690994007424,0.4999928610807246,0.9958023791983099,0.6764872409140614,0.025629553150984426,0.635310718727989,0.9891114190655677,0.05818233005981516,0.02747844077552871
16,0.2668738779635165,0.4382638900275385,0.49684403769891045,0.9961443206609316,0.675799303529332,0.009338648615276602,0.6349810770850438,0.990901075414714,0.01830716033625598,0.0089908219178016
17,0.26427299623730205,0.43787499092047494,0.49298752235010346,0.9962169464203653,0.6752985806865038,0.016944581707981604,0.6375887286180796,0.9925485202920125,0.062076899259596106,0.010175309854352013
18,0.264619508836765,0.4385815725042402,0.4934893268731023,0.9964113616504114,0.677158892454664,0.002590913586411755,0.6389343636970299,0.9940826727288115,0.022469657808430923,0.008171559064072197
19,0.26429886883291287,0.4387996498101514,0.49164667114673843,0.9964583110313853,0.6713663136618052,0.006494787463187433,0.6387385675786926,0.9953058502666292,0.02035251266108636,0.00361833190021821
20,0.2634218576903217,0.43618941867836275,0.4904725961524884,0.996927321875213,0.6736952276891138,0.014484906962777756,0.6398366018333289,0.9961922971467191,0.05262126009238896,0.01194266549746815
21,0.2645252517514692,0.43580545508061924,0.4911913573368988,0.9971091399966168,0.6702454554056789,0.003251432478450799,0.6399019153455153,0.9969501354167271,0.03481391102006714,0.002855953708335163
22,0.26371727301471054,0.4360460537659852,0.4902312872127527,0.997173618643483,0.6732338199302443,0.0,0.639742634384841,0.9975985877467834,0.02460720359867843,0.00040194458307848225
23,0.26331016469141577,0.4374950370984296,0.4895110501326829,0.9977586935706628,0.6734174033458713,0.004574808567688337,0.6401456448784729,0.9981226569088504,0.02276886132888799,0.005347181525757761
24,0.26201928958963905,0.43996663229057836,0.48812223232050206,0.9982352187017556,0.6762629687187292,0.008473126165923483,0.6401554187244841,0.9985729641108005,0.043871101793597066,0.010301542747603913
25,0.2622313179377788,0.4421728492155687,0.48843364630389424,0.9984576947514673,0.6785957488149587,0.0031691686471101844,0.6399970433483578,0.9989290520492319,0.004971163137147425,0.011359325633089602
26,0.259360520285338,0.4502328576074148,0.4835130101871968,0.9987190083373416,0.6762047215390554,0.031891072358291736,0.6412151869116235,0.9992903776833354,0.06001396318974136,0.022325331859036467
27,0.2580949541653019,0.45479987028664853,0.4816644508782121,0.9988183408533203,0.6746411135019106,0.011797853277321028,0.6429424137783962,0.9996100105213974,0.024029375458279243,0.011233188842124042
28,0.2566321311339512,0.4593696802755854,0.47928087939397035,0.9990291007119826,0.6714583544491769,0.015504033896983084,0.6435554299382793,0.9997647531607734,0.039253581131179056,0.011519215037870978
29,0.25432295902971075,0.46319342975103994,0.4754029635581524,0.9991081040970701,0.667779684555925,0.015887672889185772,0.645252500357773,0.9998326624944598,0.02543591684578627,0.003015806596062347
30,0.251696096565648,0.46425278592427066,0.4706668143984408,0.9985479088903615,0.6621787382260621,0.018656352763243195,0.6488611782036904,0.9999465069595775,0.012558529377176865,0.016017698364412896
31,0.24868669871846455,0.46922333267154637,0.4653786802634339,0.9949947789634487,0.6543202921703293,0.05013935893350672,0.6548755626771142,0.9999582696717952,0.1787723794797499,0.026443742217132783
32,0.22900228920046695,0.4816407529690968,0.43358419809669424,0.9847172749390574,0.6346593675912043,0.19355241205137425,0.6740262990990883,0.9998976310369307,0.04288339437622939,0.1038703811980513
33,0.22956827547934275,0.5057537903720629,0.4336757036273589,0.9700827531160431,0.601898228061504,0.21074753960125656,0.6948352721172386,0.9987173964100494,0.0647785863560025,0.03388482201100205
34,0.20071965100744174,0.511229337702339,0.39001354449170994,0.9524845660069544,0.5758803625879688,0.29751750448004927,0.7267612685064018,0.9957009484693615,0.3120279271316366,0.18956955957128782
35,0.19340936664144098,0.5197060083654278,0.37703304219826744,0.9430563268752562,0.5442972278444422,0.19463630394745637,0.7634671612222164,0.9896906826426409,0.0051579568368304105,0.09197847276486165
36,0.19227736552491567,0.509974546474953,0.3754575235856172,0.9436873798443463,0.5144305072277464,0.19766344707194441,0.7801324038311668,0.9802037132376402,0.4703395056172293,0.16610454772977218
37,0.2143757264486024,0.4789113149572248,0.41244346872190524,0.9490472619547473,0.498483877062928,0.382189725473102,0.7649013142824419,0.9692939426473791,0.14204819947854316,0.27727661353503974
38,0.23470930719490898,0.4287383127409935,0.4427222060500577,0.9572236181436227,0.46638015438915625,0.37164220097777506,0.7363524703261487,0.9557513241033602,0.14756754978456385,0.2980614802421473
39,0.2576907544646531,0.3873986975868012,0.48188214548745334,0.9580238706259749,0.4483609703785676,0.3106192723903971,0.7239339258876389,0.9407312345658474,0.014896909088298318,0.30396019528425083
40,0.2940999654838453,0.34795885132338994,0.5388804977696099,0.9523286467685307,0.4294278279218916,0.3453363181588968,0.7091900895769108,0.9247305357341489,0.14682556793267548,0.3502425392720681
41,0.32545034143669166,0.32196104970511424,0.5852103383032582,0.9453535987159836,0.40719103891875286,0.2832812247863647,0.6948764568481288,0.9079610617012298,0.06024838211818796,0.29681948222879506
42,0.3501487000055218,0.28778730176638906,0.6238389553045368,0.9460377251162279,0.38937894343132423,0.2614599745144885,0.6868936640306007,0.8906589726569686,0.3119602058539894,0.27935598938838946
43,0.35718459621406895,0.2593201888407254,0.6285094271075617,0.9529598489747205,0.3582788122323302,0.1481147868284301,0.6872526575403899,0.873648399472995,0.032560900104068376,0.1965185281284441
44,0.35334227389060896,0.24686663876804893,0.6170645942440608,0.9547325135453806,0.3279334867628654,0.14444951822637286,0.6976379291868129,0.857616742708993,0.0035726390884828854,0.13585916023519992
45,0.33950308710405624,0.233784361556478,0.5858449734352841,0.9528267033820812,0.2856940910886462,0.19355149966250765,0.7120456805264209,0.8428008220879258,0.03764162944267557,0.17527829102854647
46,0.3139566394171841,0.23488095364750175,0.5373765600962728,0.9435623063397987,0.24781554083572274,0.2770262377570555,0.7305877299587729,0.8286218893626115,0.06526947985278264,0.2544379382678512
47,0.29268731954584,0.23192056092763752,0.4931616780374959,0.9343984350828538,0.20499960479221271,0.27076662169676824,0.7547283015626823,0.8147862267892233,0.028618314492860186,0.183485491361307
48,0.26631335693966957,0.23258573326522505,0.4444969705762514,0.9279400880022501,0.17234954694572222,0.30214060907535506,0.781193095007934,0.8017883377522355,0.31628210397951284,0.16930440934365776
49,0.2239838095919608,0.26120224650354756,0.3623545219527382,0.9237373101965359,0.13413736266058085,0.4474963379015339,0.8091296298647696,0.7905260554884576,0.2739359653999431,0.32348786917573585
50,0.1927069277302252,0.2754148948901831,0.305675701080081,0.9210991830572836,0.1133695108164317,0.3291805662856838,0.8313449169841428,0.7800020289745747,0.04580617110008508,0.28089087423291664
51,0.15967338948019288,0.274294242093674,0.24722359157688387,0.9240778412823045,0.07307580220240362,0.3986070878798485,0.844663318967829,0.769393204278443,0.00843887567712932,0.4629046537862216
52,0.1259951163198472,0.3115989301627834,0.18995072270273344,0.9279047514228812,0.04550914982357186,0.388301662412106,0.8566302002385644,0.7592630402079708,0.4571308978723797,0.33387544234931565
53,0.1102574036349696,0.3212663954542677,0.1618319586669579,0.9340398721785785,0.028682156345608497,0.22181887240185338,0.8669762519979131,0.7496352217040008,0.23688924000976902,0.12032025561442959
54,0.10822258068837223,0.325789177207718,0.1544332937440437,0.9423200519287486,0.02311107709675758,0.15195846855618048,0.871950618660817,0.7407564854568951,0.0044749456602285595,0.07269745062986592
55,0.11869024035928148,0.33026863035429005,0.17189682909221202,0.9477741579178595,0.02866544480779038,0.1809809012877967,0.8611598842862018,0.7326879024460916,0.006312710757234916,0.08331155048219664
56,0.11685919698429491,0.32559965931693213,0.16918708466802332,0.9487339180874446,0.011018650051907377,0.2553744000729764,0.8363453316602507,0.7249467943275076,0.22064175430163446,0.26225453622012646
57,0.12515049374182424,0.3155534888493618,0.18615914676278342,0.9499489833345199,0.018233705787270328,0.14097417109978028,0.8132311711830397,0.7177588985641133,0.03155842982180126,0.03786973357596686
58,0.1337877136927741,0.30371587374504655,0.20413924559051105,0.9487397300676187,0.023666651790451895,0.13926166814514077,0.7985626714403239,0.7106109305158963,0.07468857122750122,0.10436999928654851
59,0.1559467342013309,0.2935052149630403,0.23704064949915743,0.94517365681277,0.014321660788290187,0.20097001044231122,0.7871754913228713,0.7033232446400477,0.16373330995670746,0.1898694100672315
60,0.19796150463627452,0.2724801535023866,0.3008893714680701,0.9391687880090355,0.0017909749540777802,0.3217897291654553,0.7605828858159109,0.6960933930211204,0.5518987422608144,0.22359855617393506
61,0.2049257959190836,0.29129668739200953,0.31227221671402455,0.9347993507483311,0.0,0.11541226730631386,0.7372783602537947,0.6887268038442402,0.12183196734941226,0.08394672384861582
62,0.2028404427155408,0.2962936466955539,0.31204935646998655,0.9335341781487733,0.004089340249637685,0.08829002032520467,0.7314688437208303,0.6814331632951033,0.025584067262756575,0.06547367001017436
63,0.19233325447314112,0.30252076783202364,0.2986437962276522,0.9356562218637628,0.008233373879233008,0.12683598051465278,0.7317975115427637,0.6742043825978616,0.1569265225410408,0.09792393582512572
64,0.19065587381709037,0.28601043582330693,0.2959133892642794,0.9392311229921783,0.006566440628300929,0.08397058723774152,0.7363946137920316,0.6668594245864005,0.06739568607017414,0.04582624677505904
65,0.20197889829517365,0.26273459585360226,0.3149044766162822,0.940068804242108,0.0015204427497812086,0.15016585117253234,0.7356958611890524,0.6591813423582261,0.0042559548549759695,0.12009488327823584
66,0.22026895536666954,0.26211622586891264,0.342448379294092,0.9377552512674355,0.0021659024282050464,0.17606776080136435,0.7258811662585234,0.6511750300778337,0.13322255607364966,0.13616630999479182
67,0.250614239858426,0.26385307737971386,0.38980322936074613,0.9324902813209872,0.01793841244679311,0.28516967796472975,0.7069556849952752,0.6430437536733883,0.13353783120531038,0.2509872182348659
68,0.2955433430068558,0.2616192687324168,0.4382030135517633,0.9325556177494655,0.027509072811497715,0.42198358951870935,0.6742540528373243,0.6353383745579658,0.5655731507185368,0.5095243763340971
69,0.31404822759418094,0.2542748309065208,0.46352495531964966,0.9376007738389667,0.03977760197304852,0.18876170373424106,0.6380078284027421,0.6278613329270504,0.0423864965146874,0.18987647776529634
70,0.33014937879918954,0.24249576096387682,0.4975384466050023,0.9431071232433476,0.07075769925577731,0.20162941729063766,0.6213067341570133,0.6203256084400024,0.40800156502685325,0.2174791206414148
71,0.29053587345901355,0.24300886564649443,0.46663466746658483,0.9442437329417943,0.08072247421933476,0.4631643704630627,0.6342236120563566,0.6121898722212594,0.5663273311549305,0.5549468599089757
72,0.2701523037846404,0.26117927423845866,0.4417798466737796,0.939971551454498,0.08501925320223577,0.1990535781715094,0.6612615605296124,0.6040839214240165,0.18915307272134244,0.07682638495993525
73,0.2620074882476548,0.2636840099207735,0.42632943300022746,0.9357713558923061,0.07168853883516554,0.11016677051346939,0.6809330986684381,0.5959993238132919,0.025960403344458323,0.09286559016824195
74,0.26678609237452533,0.2563606123830362,0.43397531044550103,0.9350588400378862,0.0635063691611826,0.11131746875733632,0.6851838544739355,0.5878106675847755,0.22389516416802435,0.09879529384593917
75,0.29283937930898024,0.25724022681645914,0.47702349698830526,0.9349733840203197,0.08495544365371918,0.25245116525751776,0.6711456958964119,0.5799625384773787,0.06109750881409276,0.22002155325599318
76,0.3201360911329196,0.24385927343058633,0.5265390582951631,0.9351326070929868,0.11740217987154726,0.23696464004492637,0.6474083738717457,0.5720691801986677,0.1867216295286096,0.1747068916956835
77,0.33915624953321155,0.23573167299503497,0.5614314454435878,0.9354405560662575,0.14055440452654835,0.16784422353663916,0.6245400763574108,0.5642356085695842,0.1151469976478392,0.0852254131155627
78,0.34852756482544517,0.23035113746657213,0.5821308820172708,0.9354563885878556,0.14426351831354356,0.13540388473549553,0.6094952780137181,0.5562969236836918,0.04161828811028437,0.07480523844253566
79,0.35753505775309696,0.23262782717627,0.5995442369131398,0.9329656280383795,0.14194713547684745,0.11793130841318059,0.6024420682834813,0.5487087972903054,0.19020604722323614,0.08933621027036456
80,0.36114133908155244,0.22783533173779064,0.6077989213164613,0.9292045779884978,0.14534799344687363,0.08227669781841931,0.5980580975920017,0.5415254534083592,0.29745075362158374,0.05318109357899909
81,0.37529703294056854,0.22403302875355982,0.6086815069186764,0.9285250135344258,0.1481007527874624,0.2900540523654782,0.593844856088496,0.5349857898110602,0.20109276091412637,0.33731193782656765
82,0.377463694410879,0.1922500909058849,0.6091855252851587,0.930526666934471,0.1547412369626722,0.16783196746616935,0.5899789275979959,0.5284883781008997,0.053300939439592736,0.07310825375795912
83,0.39072266141438045,0.15590189406351365,0.643831437859051,0.930463748267386,0.16516681299701427,0.24383900177001053,0.5771417710852126,0.5217130220265956,0.06759349094223048,0.26157285249429396
84,0.4222345130795188,0.15951158991439773,0.6820047410504929,0.9306629920995849,0.1841056197899419,0.3316700400126929,0.5493018983107913,0.5155956773178251,0.016593782530716625,0.34862206655094763
85,0.428089154372797,0.13545998202440193,0.72131743568827,0.9328966212696749,0.21149815753916643,0.41617261849350295,0.5277483921215301,0.5083246818840589,0.38284322071505356,0.4522735622531374
86,0.44569383265846113,0.1668945957911284,0.7510168839714925,0.9273220364401336,0.23484955521982498,0.2489131866750997,0.5111290856037107,0.5010080632004131,0.12952975097546846,0.16700477864260052
87,0.4628356817124004,0.18252718102932994,0.7792854514163391,0.9246857659563544,0.2507592097412307,0.1750128353466112,0.4897864970241083,0.493715605288653,0.037970799218973894,0.1292367324364995
88,0.47088652500727535,0.20439067503666705,0.7986661752214921,0.9212025379808954,0.2618418975973517,0.16488044693678017,0.4749002109957705,0.48660867424940246,0.18627784017248428,0.07927875164223629
89,0.47556575364327996,0.214978130168316,0.8067548213635283,0.920775650710963,0.2616613479672728,0.09175010936533834,0.46660775070278454,0.47973532147613884,0.006076860094828344,0.07393907605992493
90,0.4857903899822733,0.2170402971908824,0.8206393097461967,0.9215882056818003,0.26930348341189375,0.16633793987964304,0.46423568494178014,0.4733050793617554,0.053006123766100505,0.19993694477693708
91,0.47051890451555245,0.21175107842734434,0.804425120070726,0.9247219416883747,0.2692126894822793,0.25394553349239973,0.4659130145646771,0.46681708499890096,0.18341395312738243,0.293357658838415
92,0.4716842735188367,0.19900744366082698,0.8001022216946618,0.9363928396689472,0.2601841390748181,0.18595835244012834,0.4639326604182506,0.46113765624037056,0.007601071267450334,0.07169682536402792
93,0.4740703557018384,0.17554637121227518,0.802843697875455,0.9429326631521201,0.25394963310600827,0.2424274549465487,0.458309196894993,0.4560199378561693,0.13595205645197053,0.09855046539172554
94,0.47086479431695255,0.1779358709230026,0.8065164642151058,0.935605676744847,0.2714540217892382,0.19781790869880495,0.4577860470426517,0.45076486341584926,0.11035821622369196,0.05548918729609537
95,0.4948876130676779,0.15926905689498136,0.850490775281971,0.9246353149295607,0.28831569629076464,0.2508619343678943,0.4546454049751843,0.4450397645261416,0.0851501129879979,0.21236117720675254
96,0.5278760889711136,0.1291366983471955,0.9074972449902374,0.9154095397413563,0.3027816004083885,0.3258912362717107,0.44262154395092146,0.4384288364400292,0.2849812910554911,0.30700214520660135
97,0.587047333381565,0.0844341454295502,0.995046637349054,0.9034939323774777,0.32315318725870457,0.49243586165629516,0.41983976811166124,0.4310345844685064,0.8799472475649274,0.41460576570494784
98,0.6033350376393634,0.054628514614750455,0.962554056537088,0.9088626506198498,0.3491538381254046,0.1847326803032299,0.3991860526063583,0.42307754955162186,0.0709492031261399,0.12730284711635675
99,0.616505310043881,0.020234958637713345,0.941464983510255,0.9136868389853657,0.3730646330090589,0.1514221980061215,0.38623935578612106,0.4153190666451596,0.11159675161986893,0.011260163440620388
100,0.6144940238363851,0.0008361552894571166,0.9439134944033565,0.9188228980360459,0.38109324337190126,0.10716285965280188,0.3754820930659731,0.4078435236361551,0.06998670029536337,0.0839466083194675
