Frame,Center of Mass distance,Symmetry,Grounding,Arm fold,Leg fold,Kinetic Energy,Potential energy,Bone length coherence,Torque,Center velocity
1,0.4478188421871311,0.5524879967981459,0.9999997384059276,0.9749886516089669,0.6267158797888303,0.27686704681906715,0.5473504351956038,0.7069303343695607,0.36962947684697184,0.37710296147719274
2,0.433224167585401,0.5785611823438946,0.9753792932538778,0.9724417454307042,0.6289421132730569,0.27686704681906715,0.5473504351956038,0.727882829296122,0.36962947684697184,0.37710296147719274
3,0.42769016073011656,0.5765368839080413,0.9620617955911495,0.9800498460207718,0.6215128170686468,0.12438856596721301,0.5468554599060537,0.7444937123356413,0.0056395413741611115,0.11903228108203255
4,0.41734446830260385,0.5780494672300056,0.9408895037537925,0.9879665549051461,0.6158287130123062,0.1568636144279956,0.5511915043881868,0.7591459267508908,0.09811865298165393,0.1201345789287743
5,0.4082300337410641,0.5819284939240554,0.9219231593678661,0.9906097261919173,0.6094666518314189,0.13061668319974015,0.5609274576020523,0.7746549326783925,0.08935592863779743,0.06294876282918742
6,0.4007060154524138,0.5854103168972931,0.9074159962711398,0.9930528956495616,0.6095893454333224,0.10782020947466887,0.5692682190228842,0.7900852587349785,0.03014964141584177,0.09209260623417385
7,0.3941600705262036,0.5898732282208314,0.8928968239334396,0.9943951523384488,0.6031890662564795,0.1037860490416701,0.5757269842525807,0.8060933772311172,0.06548230910919012,0.06285202382504672
8,0.38850361314065107,0.5940920665321214,0.8805708392286369,0.9917084547336805,0.5967989406339097,0.09019653545437492,0.5825218619722934,0.8210990636368554,0.06252783414208998,0.06023969857223563
9,0.3830189011821034,0.5981943542821798,0.868786771522792,0.9897846010942094,0.5886022086400802,0.07815274551708583,0.5882784407720111,0.8357771806460351,0.04941075553865959,0.055589784271168
10,0.3790098293914355,0.6010691958203915,0.8602114228897153,0.9889135460605277,0.5865947706162309,0.07321896610040221,0.5922122970008898,0.8508642500388761,0.05716330883889646,0.04611521329201364
11,0.377582030378862,0.6004643521349233,0.8561965835165579,0.9869985470454365,0.5862940990888786,0.054019255797024816,0.5939885640975775,0.8654405875845871,0.031528235640029996,0.02210706032438503
12,0.37380581250022166,0.604116122739844,0.8476812810883535,0.9868088293846714,0.5837843380344689,0.06533677599336712,0.5964020729675046,0.8797652178553632,0.1053523878353175,0.03259675310610456
13,0.3731532551011973,0.6063794427387329,0.8455316269539856,0.9868643799327858,0.582281592865249,0.023107674252055635,0.5990214962803763,0.8929883304107182,0.03174772238427898,0.018439587024696176
14,0.37477667367641276,0.6085310802423052,0.8472196758884089,0.9853290469737861,0.5811321542533524,0.03163825775585262,0.5987793581387463,0.9053766427043686,0.06833885166805435,0.04290951559614572
15,0.37432103210980683,0.6095006948133769,0.8470598028679414,0.9843348658766766,0.5847680512636239,0.011335635395270773,0.5984664100753463,0.9164572719592485,0.02606668384750456,0.004603121062737163
16,0.37621246436392974,0.6091006279206176,0.8502985450431471,0.9830780135651864,0.5852633913465485,0.018292459796174824,0.5984451692700711,0.9264130928965981,0.06430368972773351,0.023887649917060827
17,0.37655877400374205,0.610631032022778,0.8511136722742655,0.9826497422163535,0.5889545463697102,0.00672292670026587,0.5976798998860204,0.9354945590509339,0.009148937617564579,0.015394598520932522
18,0.3792692277743961,0.6127572593845563,0.8558235464687994,0.9806437123429584,0.5927525521685603,0.03732886081309299,0.5960585227215408,0.9438451160332175,0.055118241802136106,0.05003988328878775
19,0.3814294023101776,0.6141620245750935,0.8592634434303221,0.9793752852772791,0.5932993640785819,0.02574550174333523,0.5937440885162945,0.9515121417654419,0.007418749918341258,0.03635411248023957
20,0.38652040004180166,0.6094495770941518,0.8671099812517808,0.9803089144182526,0.5934399431591264,0.06273429224569455,0.5908604079338662,0.9585872210905716,0.16108975551383042,0.07347420837075812
21,0.3860034352687733,0.6097031890769266,0.8658370017085247,0.979210321356615,0.5927452648880078,0.0,0.588780917257233,0.9652252839338363,0.03296973629967102,0.005989388837101728
22,0.3849900141342071,0.6101356884948975,0.8639620589614413,0.9782207429723655,0.5936312734590087,0.0025356500614701727,0.5893496789804126,0.9714689249308387,0.005353946504551761,0.0007153484868324428
23,0.3804720786667159,0.6097159271467709,0.856501318006277,0.9786476093727939,0.5943053807842765,0.05014642877560325,0.5922178987905964,0.9773394823489897,0.1169975288943306,0.05357762624551299
24,0.3800163401056786,0.6073088414042747,0.8556261445702863,0.9807628875880283,0.5944803264273844,0.0038461706256430646,0.5953966317445266,0.9826203946118254,0.033946643367914156,0.005260862360092097
25,0.3792489152242927,0.6066521399875275,0.8528715249218519,0.9849912658851231,0.5882773991568253,0.013308806504558983,0.5972651596351862,0.9870241764710773,0.0424686171981183,0.004875370654158358
26,0.37919449045862413,0.6055979698782501,0.8522087649355932,0.9908788665550952,0.5869032381364307,0.021143385658350212,0.5992741801466802,0.9908536513609503,0.009156768638396462,0.013525818700158542
27,0.37641195598957394,0.6071798672030193,0.8471371123567126,0.9956922378724967,0.5860680235525708,0.04186655962495211,0.6029024478774393,0.9939874550627054,0.04474271071023694,0.0010689963526750894
28,0.37663748220577425,0.6095672095915221,0.8472249299313368,0.9989668279869626,0.58522407977823,0.03830999148166024,0.606418939984754,0.9963736820590181,0.010623084277961242,0.02861118217561921
29,0.3718722359043086,0.6119672312635153,0.8394384383147476,0.9999996013856368,0.580917718794335,0.06337479995581886,0.6120144840161031,0.9981408091265562,0.021086075186512093,0.03220899322687883
30,0.37731205563016357,0.6142173169756499,0.8499127481768556,0.9970377583786505,0.585624131669093,0.08093540696292473,0.6143749411584064,0.9993554944935626,0.05148015721884109,0.053204451591029545
31,0.37717952128285576,0.6212899988867335,0.8523596310253289,0.9878771000064343,0.5876324568562286,0.07943242841685771,0.6144385688923066,0.9999476564710877,0.015795814519539323,0.03413356556181526
32,0.3795223623854283,0.6273291505462592,0.8586329582791811,0.9738223070813767,0.5881550842155033,0.10472810994485017,0.6186779260141766,0.9997091666187999,0.06453005607855244,0.07908697388537365
33,0.37977182737172727,0.6290502636592318,0.8603007416194605,0.9537198711568721,0.5793911725386031,0.10395975560341741,0.6247682226393728,0.9979287413672477,0.005459268821417978,0.10131052957613178
34,0.38398630090089547,0.6312507425404186,0.8696229149256133,0.9261110661631946,0.5753014682300645,0.13723128549814248,0.630871499784828,0.9945201006678717,0.11167043872682399,0.12785093224637914
35,0.39969572999092984,0.6249262445711655,0.9003072761920282,0.887019641577577,0.5777140508122391,0.2583431992048176,0.6286686699347857,0.9890645675282757,0.08625072252069184,0.19896244949335445
36,0.4095955873195102,0.6224517298252279,0.9219434249620099,0.8447951125175092,0.5847244059319223,0.229475034873644,0.6247160475545817,0.9817072331996135,0.42328213335840814,0.1868023860145648
37,0.4536068669459013,0.5879715713087262,0.9965861116590355,0.7960277176988342,0.5943633393401526,0.5651306177671463,0.5950103991453851,0.9753087127168427,0.5565641122410163,0.0899888105780925
38,0.4389082560373579,0.6013911839889915,0.9927206372204956,0.7581609698022438,0.611812139142769,0.3164950039161136,0.572882911606092,0.9676558584401027,0.2505622039667334,0.3001058850303815
39,0.46791518986882924,0.6012689468963442,0.9492742056864051,0.727949192901202,0.6254612304230542,0.48997081564334977,0.5704260963393861,0.9578501542061378,0.15049537179314204,0.36167960739193966
40,0.497184054993893,0.5826010030478662,0.8952956698180201,0.705008549529211,0.630740355300731,0.4370374694722481,0.5488770357537529,0.9458120084142566,0.3727839869855623,0.3619253505652517
41,0.516433675806726,0.5756153392338873,0.8609499912096215,0.6846151869675927,0.631877423459864,0.28450000156615496,0.5282010488527759,0.9321655025236659,0.028854010983232998,0.2203623421746348
42,0.5325773576035594,0.5650843155026886,0.8305440942182949,0.6629655965129916,0.645975013412098,0.28438775749621903,0.5087651961044908,0.9165729395265216,0.18604408463039673,0.1724079218707011
43,0.548962983149756,0.55970458572834,0.7992998020914641,0.6454385308761298,0.6628975407422326,0.22998426714211465,0.4897100891117774,0.9000063370519525,0.01088213600608336,0.17851159953756698
44,0.5486258818710638,0.5738820398267221,0.7908970862973908,0.6437658390132477,0.6817343770242631,0.2321959324777897,0.47748808397828973,0.882508557311889,0.29220856906646125,0.11804265617214552
45,0.5676158942317628,0.5904391816185106,0.755500599103759,0.6355704114402131,0.700537564675656,0.4639052730755347,0.4692447387035656,0.8648686422399924,0.11021725328296096,0.4180424512207076
46,0.5738898468720712,0.6221628854334598,0.7402969000305352,0.6549165182232798,0.7099883711581644,0.4233365882404632,0.4576957664361046,0.8468885823745317,0.16457188453812088,0.35404123260352927
47,0.5766035249989968,0.636895660541063,0.7294412967674988,0.6926261930374158,0.7185939004741335,0.3884572245300961,0.45232811199641687,0.8273522705406631,0.027319259408198945,0.1677951393325045
48,0.5811831380252881,0.6636317725058668,0.7174207971299742,0.7295387922906614,0.7298851097083192,0.43684759947799534,0.44432317698698476,0.8072360134915397,0.007234805680991403,0.3047966731414863
49,0.5880169455922762,0.7048491067403726,0.7033662323024606,0.7616414765296065,0.7455776436002076,0.4973383250366551,0.4314935781973495,0.7868884572615059,0.007878179597185762,0.43794807996787904
50,0.5924216013137298,0.7531572289584113,0.6902964252348239,0.7761631487347138,0.762103453938948,0.53627319889179,0.4245802294145408,0.7660011013274676,0.29995843532722366,0.4209720310368024
51,0.594595992373929,0.7924326196207845,0.6810943443384101,0.7820699428267449,0.7784952800480788,0.41812067577997364,0.4200191773792075,0.7448950198036632,0.10352586151132478,0.3373484439018444
52,0.5959992243494228,0.8240533088718346,0.676612645722386,0.7864818399067991,0.7826969327919618,0.38367394518302145,0.41718263870044325,0.7238103418813812,0.5247209203921552,0.33263764559853787
53,0.5963131421517495,0.8311865563293485,0.6762463638726735,0.7701144942487583,0.7822805094732099,0.21713742164262795,0.4120315585231576,0.7024100097613913,0.07253775975143643,0.12768273274256384
54,0.5984986747304674,0.8191382263209298,0.6716535797776393,0.7267552178887019,0.7752888679762859,0.28154138420658087,0.4028727873603221,0.680224136770501,0.0937800315092507,0.16723434553518907
55,0.6085315336259688,0.8053579320169548,0.6571884490243217,0.6331577838658069,0.7650087305905299,0.3920079093001958,0.3832450128572965,0.6572410294510178,0.3268600496010112,0.19716919303368632
56,0.637528009921688,0.7760366347976619,0.612902121199606,0.5016744813315546,0.7678050722879761,0.5922682834732327,0.3498202726595697,0.6335852732587675,0.6432223048256102,0.291850693550277
57,0.6349979858223681,0.7687650337366719,0.6120779870377557,0.4183729210866608,0.7881840735446223,0.34521744167566326,0.32669150485799603,0.6096753898382077,0.012012402094019622,0.27500678440667253
58,0.6369687759134245,0.7490003064033574,0.6101970396701853,0.36827522211057134,0.7854352187060942,0.3404032353319382,0.3170116331443375,0.5860945931615444,0.008146030536976438,0.30008609585443047
59,0.6399372463451208,0.7247316990660819,0.6090674204410599,0.34824778149849994,0.7709801704011648,0.35884969444854725,0.30869627764795265,0.5627454513152624,0.07973807400675396,0.3034917185150139
60,0.6431267218091797,0.6858328574254483,0.6047696133274482,0.35865343071381,0.7594427839563498,0.31694465398710725,0.3063335090251983,0.539392891772792,0.08741659668119725,0.30573284075848833
61,0.6484705545377816,0.6531911403758889,0.5956455924973675,0.3400163063560382,0.7475975470469302,0.29201342291763854,0.3029593926214117,0.5162542961011718,0.01784891326248419,0.29263161168360335
62,0.6491971935812504,0.6134394319421591,0.5972803504249702,0.3394681683047605,0.7250625017605828,0.36030457581764236,0.29763296022350677,0.49353133934683885,0.15837522348248162,0.3525300228067192
63,0.6427688106037612,0.5637102540686603,0.6118122825812032,0.35749217067178896,0.7005569312424557,0.5230851504017394,0.2982156173604221,0.4712675995868933,0.023265174408888048,0.5038432226913481
64,0.6352524617247334,0.5058473949332367,0.6276674829772739,0.38522056016035855,0.6778459912861042,0.6089938964331181,0.30539129704409895,0.4495420645978318,0.0067064810424197355,0.5970621286767209
65,0.6330110213415343,0.4356140648832991,0.6345352676593426,0.41087092960468513,0.6608131485579158,0.6641217325801111,0.3159244112825019,0.4286931197303561,0.04582777886423794,0.6337674986248241
66,0.635447541467159,0.3558325519202423,0.6356483741821313,0.41351067740966074,0.6473555463759222,0.7575753500331457,0.32336868076312286,0.40910951240719123,0.07632111610985058,0.6396928043574036
67,0.6426675245101978,0.2750281198796684,0.6244182327162153,0.4092331118983109,0.6599761230027403,0.7348483620288242,0.3222580609836251,0.39073828382757936,0.09672402099477953,0.5691274003064373
68,0.6464051282990577,0.1963423499364722,0.6195815109138936,0.41731459689632605,0.6804904257131431,0.6984689896250454,0.319617233234215,0.37394841232921705,0.19505633524829352,0.49624162626633717
69,0.6476375392318509,0.13245095617595606,0.6193600905334327,0.43245740237070057,0.6859227338825366,0.6252887224280365,0.3142930475667306,0.35833155275864054,0.358048746464992,0.49775679991280514
70,0.6416135602762949,0.09247652016357202,0.6299072064189459,0.43982274357793794,0.6839285959857043,0.4639708403054793,0.30655227105571825,0.3439041644434688,0.31104881869762574,0.3816129686297421
71,0.6354249303025102,0.0639471328801779,0.6429544961597559,0.4424281196456207,0.6677382678657284,0.3310808168673036,0.31297899212625746,0.3301244028352191,0.003762370903461199,0.2526266361371263
72,0.6251670207300534,0.03724148103774696,0.6559439914283793,0.4455731760463377,0.6535071178869327,0.3864840603765137,0.3225542876131115,0.3162555655254204,0.6779260809294307,0.4732944023250277
73,0.6224957327247171,0.03280220816154262,0.6580313476251918,0.4444990882407029,0.6528413763477244,0.11635280250388019,0.3232014305137228,0.30270800369195516,0.028882855423938033,0.08962595264608986
74,0.625806772148712,0.03508873964180765,0.6505053064222273,0.4449560919776454,0.6544412935148691,0.0912083545647912,0.32194245594506027,0.28959225371502184,0.023565215468608475,0.04268171532552118
75,0.6359772127997629,0.04133941632826858,0.6312229688831726,0.4533290840380985,0.6589527919555704,0.17325698047737143,0.3152179762218609,0.277066438419008,0.14545723916586759,0.10973959481889865
76,0.6544331082753471,0.05219141002017295,0.5996011362432174,0.46011274544454733,0.6678671801974712,0.32013945516731435,0.3007394787518769,0.2654282991928417,0.07380562905062027,0.2659841272167071
77,0.6769073287829667,0.06954785625011767,0.56128265060507,0.46330111080652087,0.6838982463023543,0.4354324475659498,0.2827458520050233,0.2549575876532785,0.028865901718071598,0.40681317915549464
78,0.6986546201871486,0.09618747100850619,0.5218848344343785,0.4553933040938043,0.7063407062633902,0.5184009584358884,0.2676898664533179,0.245928098335726,0.00282342175344173,0.48320445661587286
79,0.7272981688920311,0.12015493786819473,0.4717912880211182,0.45284644826670634,0.7355062057559838,0.5521975705350466,0.2512794191834258,0.23838101211398366,0.15923091741939588,0.5222147669435153
80,0.7515049636484323,0.1454944746090749,0.43063636978040215,0.4634068691247083,0.7611321816504751,0.48618567721381406,0.23089124103113953,0.23204611433812228,0.13677044997259957,0.47789293592011894
81,0.776019820960367,0.16647024728954354,0.3901614748098438,0.4791716540781341,0.7915481204049836,0.44060149264275994,0.20883674568292457,0.2267725786980655,0.18942710022016107,0.46232067307069913
82,0.7899932597432262,0.18782741306671666,0.3654261912909773,0.4889870703554451,0.8187101590567337,0.3413239819183512,0.19142131838470286,0.22231266268233768,0.1854595336337917,0.3318011746336614
83,0.7984177469597225,0.2123318530551316,0.35265661524769376,0.48064941315521736,0.8224844071251175,0.27534283378398355,0.18281937369409723,0.21864540354909445,0.13337043558718592,0.27225304607462886
84,0.8024336263228924,0.22571100902886024,0.3460627913753474,0.49722599214587415,0.8242608052605362,0.21283981669268728,0.1793373538955736,0.2156770985939538,0.2541692886280625,0.20789206817871292
85,0.8028473934266251,0.2371339543840487,0.34480407280574815,0.49858639307577385,0.8277891192968707,0.10374339845954696,0.17899046277942612,0.2131422960998827,0.11665204315916923,0.0900579851202461
86,0.7989688419235238,0.2468614235165273,0.3528247446213312,0.5040453654618313,0.8239242965326556,0.07218880265333064,0.17974921911850203,0.2110016532889716,0.004914340390805384,0.05829625512481875
87,0.7942154019404358,0.25926679053009494,0.3616222642124279,0.49190024514388553,0.8253852931008299,0.11579045612547124,0.18275349085023754,0.2094226823576413,0.07099431369607422,0.05710440994764289
88,0.7916053137762521,0.2583123283743314,0.36649351258255325,0.4991275648706938,0.8243215077508589,0.08715852856307177,0.18696849950293634,0.20829715567172388,0.012936073315335628,0.040016886029663475
89,0.7890672743293708,0.26360005503662715,0.3725919552647192,0.48054225972407005,0.8260220233236604,0.12273946258493812,0.19025067466919654,0.20765911942783266,0.011825736741098238,0.03428963038962317
90,0.7804642439733112,0.2670507746602375,0.38883370310464327,0.4913149323067677,0.817846857079956,0.13396387143747662,0.1967169684308119,0.20750221477406394,0.11185109745631486,0.023651790643443762
91,0.7760664426610883,0.2711185171214267,0.39959248186232366,0.4910797789667122,0.8052713537843212,0.08598040987297569,0.20367276374419555,0.20775930443267338,0.06278349718718665,0.030878123969096952
92,0.77360952283641,0.2756933091446631,0.40593636340689826,0.49430905433185324,0.8002328132924339,0.05907514372490699,0.20450458157955742,0.20824924012843635,0.024613410595052513,0.07271415070317995
93,0.7694041063110537,0.2770261894214307,0.4135937556830166,0.4985511952041263,0.8042790418811984,0.06697944581456756,0.2042351094747531,0.20899219164562394,0.08287395475646235,0.07080817563393302
94,0.7672238238620404,0.2782262320994903,0.4177542071029847,0.5058600695205167,0.80619112814803,0.03914334959048791,0.20417019885255733,0.2099650732455295,0.0074109731188574356,0.059600065167234
95,0.7633183111334654,0.2795000054797608,0.42639635713897983,0.5155441626056356,0.7990513116207175,0.06124813034700504,0.2048135943503508,0.2110844827976236,0.010353800853581962,0.05382200881025435
96,0.7574726109781216,0.2844345789545899,0.43673781477281015,0.5225609056481989,0.7964773360428811,0.08274350984249138,0.2070816525561316,0.21236950066024085,0.12010800847947015,0.08623348721460895
97,0.7550332201446001,0.2826814422785598,0.4428948025047245,0.5286372041626605,0.785750823906092,0.03771713639822614,0.2097877362583663,0.21384555766750357,0.006803302381843628,0.020065930217136867
98,0.7579647855427208,0.2797270862128783,0.440383369986013,0.5364380357552136,0.7852702339563511,0.08032337988077694,0.21243111459730807,0.2156268057504838,0.07429468091367473,0.08645949847882543
99,0.7587223355010562,0.28289007483885265,0.43781339241755307,0.5463696527966487,0.7968657373088245,0.060515236929233024,0.21406507822483065,0.21768244147267274,0.005191088973199226,0.032785313953285856
100,0.7570234559009371,0.2972063098871997,0.44480277066448765,0.5531474819710409,0.8029671860831198,0.1338675338866843,0.21451058549695995,0.2203177228681573,0.008900075706041876,0.18804633890059
