Frame,Center of Mass distance,Symmetry,Grounding,Arm fold,Leg fold,Kinetic Energy,Potential energy,Bone length coherence,Torque,Center velocity
1,0.32475482430381697,0.7159969701445372,0.8929251975508509,0.99333196954359,0.49673607522785,0.15242898191346008,0.7313884705294406,0.03731342513615834,0.26170488946186676,0.2620169809054701
2,0.3133489984224594,0.7283446508317528,0.8725478184175922,0.9928115497402413,0.49858677189459777,0.15242898191346008,0.7313884705294406,0.040202498377833136,0.26170488946186676,0.2620169809054701
3,0.30871439182506644,0.7323877329785206,0.8608749408858246,0.9942441246450658,0.49353343486391815,0.08401923244673606,0.735418837968624,0.046818726414027,0.10303518982598056,0.09914468167377727
4,0.3026022349810885,0.7350406533018086,0.8479916186783744,0.9946562976949592,0.48974875288431596,0.0621340174053815,0.7411229071868111,0.05022893804722264,0.05422153453760902,0.04580702295006707
5,0.2967386923701015,0.7366635955704893,0.835148867544768,0.9948202232227292,0.483301658384351,0.06214223608272876,0.746992298433911,0.05226635547088681,0.12160124237697169,0.06182901465746361
6,0.29389733644501426,0.7380967187936894,0.8278937787022635,0.9945767869501975,0.4767051132081382,0.03501274413117307,0.7515315454525444,0.05438435676972973,0.08619221826676382,0.017997735314341262
7,0.29305413394266006,0.7369467666026922,0.8243297659076351,0.9941908853593241,0.4705774358633789,0.01685696000400032,0.7539857928346091,0.05620527750303118,0.02258521442316162,0.013615303654861303
8,0.29076811864482444,0.7338911772479225,0.8194554411786309,0.9942882922092956,0.4699249981543194,0.04348332854884561,0.7560954017604747,0.05765434028945773,0.07065249836416375,0.05554332038892922
9,0.2901071539164757,0.7309084861187052,0.8184211017135888,0.9954237753325288,0.47227830247586033,0.03324062420189893,0.757932582047618,0.05863961576310673,0.07582537840660777,0.03313658111758589
10,0.2897507899380517,0.7289835929152826,0.8174416000736346,0.9960436509950985,0.47339277634650095,0.023136013160475796,0.7586776383492414,0.05955392711138615,0.06447235990539975,0.02058962836991223
11,0.2884137194144433,0.7287214235106794,0.8142953355888104,0.99621832843868,0.4721254864122224,0.015910135705710926,0.7597864027021376,0.06050039398684248,0.05297410740632561,0.012312461796366372
12,0.28725591456074767,0.7287910932198621,0.8114687354990007,0.9961213018992452,0.4708416230464044,0.01665157339639142,0.76139333719632,0.06120388489859167,0.06844962786905899,0.027948569222313435
13,0.2863211074391356,0.7290533971445368,0.8085391472986626,0.9965270688145106,0.46734552762484016,0.008269917294335913,0.7624896182122842,0.0617832354800908,0.022528304863428803,0.018194069608896545
14,0.28320786162911765,0.7297760968832427,0.8013866007307092,0.997018788448119,0.46364432760341895,0.03196711914389932,0.7640014794960112,0.062411300705498794,0.10848174648415078,0.036375598579182225
15,0.28325548991243477,0.7313455113439943,0.8003076776680373,0.9970608648292162,0.4600689856049541,0.012705523523258508,0.7648587756224358,0.06313212127812777,0.02558483083683272,0.027015605590373557
16,0.28118326586132064,0.7342323387069738,0.7955778037953579,0.9968646514489569,0.45681563667384245,0.027516257756349086,0.7651281379728133,0.06381339325567219,0.08615804191972302,0.04030813130217892
17,0.2798258368332602,0.7355853162606156,0.7923044760572843,0.9968780673571113,0.45328563022136537,0.011671575695264764,0.7662570493118694,0.06458148482568747,0.06896051631260623,0.008466047183603108
18,0.2792290927385218,0.7362406244498285,0.7912545323330721,0.9972216546847669,0.45290691897449176,0.0038725637729838456,0.766682926159487,0.06530365003874951,0.060532007596577425,0.018491773894553056
19,0.2791193841786223,0.7370808449794729,0.7912817283276266,0.9974663215202809,0.45193518403077015,0.0,0.7663227142321024,0.06595495263589561,0.039475289918789715,0.0038923917024590153
20,0.2799398958621437,0.7363560875517856,0.7925902569180988,0.9976876625425203,0.45231593150826493,0.0031266601480920662,0.7656588867512307,0.0665622646115649,0.025796849856357208,0.0015654058821561107
21,0.28133768874183557,0.7343886945525911,0.7948167617837952,0.9978878304652345,0.451885618497105,0.016544833284339887,0.7649388464157945,0.06711577894632441,0.04138449831111227,0.027174041131438724
22,0.2838734977757391,0.7329085162784266,0.7990927746325915,0.9978248677475517,0.44932852263916634,0.023782175429775412,0.763799289040923,0.06758417135309712,0.0661942892060412,0.032212472661194376
23,0.28590738901016327,0.7318803559499899,0.8027116252523043,0.997400631891265,0.4492609675890185,0.02142728783527442,0.7615837627327511,0.06798894221449128,0.08085882712996861,0.019176124030958017
24,0.28553565844439244,0.731345848739303,0.8026688249985796,0.9976574779461187,0.4502977994471625,0.007112509371438563,0.7600341082638837,0.06833669173091354,0.035058722130062864,0.021600734493566465
25,0.28673102295871983,0.7305540970542275,0.806039790815464,0.9980474015620917,0.45437828745223807,0.011294493748318016,0.758827892527339,0.06866387993343608,0.05284962036311498,0.0
26,0.28597995244291136,0.7310602314592375,0.8054120537608191,0.9983060706971579,0.4570103602908681,0.012248953848526633,0.7576359087672524,0.06881526679581955,0.047912408996859834,0.013753808142041518
27,0.28713219229992704,0.7317782723557749,0.8082769957445921,0.9984479708503005,0.4584686228851241,0.010899460214030895,0.7568346352280361,0.06897340788655,0.05201170299705926,0.00844271448778702
28,0.2860995684227194,0.7331808187087782,0.8061936042272922,0.9986665137156715,0.4583232958188686,0.009438086377009198,0.7563566608598574,0.0690268771919587,0.03236276452704294,0.016830835777873417
29,0.28579116221709594,0.7351281657142122,0.8050058971863991,0.9993420492200816,0.4562133107433862,0.027840241896578608,0.7568704009725352,0.06904779199673536,0.057391888656989465,0.036371393548293274
30,0.28477892423386386,0.7378291882275342,0.8028150591988097,0.9992093444514354,0.45494848228315954,0.015100486198116284,0.7573042374030853,0.06910246260200681,0.09048281068580034,0.02912558649011209
31,0.28437265601266437,0.7386679091088806,0.8017548612471413,0.9991631190697563,0.4545860392393043,0.00022025644114982796,0.7575101860031939,0.06922530791819728,0.04343042126102282,0.0025374181432722474
32,0.2836972545657755,0.7384071989560598,0.799915342008884,0.9994253206117719,0.4532584124629448,0.003969509102562232,0.7579859380013367,0.06940230961735276,0.03425066637025311,0.004504370574705688
33,0.2837054409645087,0.7367638614602645,0.7994632643289044,0.9995994098176094,0.45200606938229504,0.011415325540214096,0.7587748057858794,0.0696390540639746,0.07196802701773924,0.023851602583523868
34,0.2836671117312536,0.7351634612171208,0.7990883162728284,0.9997058417546411,0.4514074850249524,0.003339594769870578,0.7594114046866732,0.06988643307451964,0.04537988092079681,0.006106541286351245
35,0.2835777008679034,0.7336165793982377,0.7985961133549803,0.999969771631727,0.45198102415810876,0.004987753057681761,0.7598327000997664,0.07010285722381564,0.026762035687840063,0.001226906387501918
36,0.28000804603925855,0.7325170038518887,0.7922081754863999,0.9999999172041502,0.4530695623283859,0.03646015747433822,0.761818325181992,0.0702876466457446,0.05714671995799421,0.04594822401148458
37,0.27650419008099936,0.7321129182628211,0.7849611116914691,0.9965812434775236,0.4510907075133953,0.0343604227540966,0.7659691143252274,0.07052576875725769,0.03267456781116251,0.01680781675840516
38,0.2697525590575754,0.7361616990439196,0.7722093110970314,0.9854016344905303,0.45041099923713734,0.08002704468746401,0.7722701985891952,0.07095098157775792,0.04682747714270647,0.015683737414009413
39,0.26412498039215426,0.7437081273158896,0.7612693879103175,0.965427630711505,0.4464980169218273,0.10942106921823927,0.7796465822433148,0.07142744889394115,0.031133648768377157,0.020300836945922836
40,0.2551873377478871,0.7521481323966941,0.7435532037196596,0.9434167645526123,0.44159241103867214,0.13745386907310417,0.7892871700278503,0.07153409676713791,0.15080604793068014,0.041372215043085754
41,0.25404774727028145,0.7599319391358095,0.7412317357910085,0.9215927384339833,0.43699327057331294,0.11322218112163783,0.7976255025277852,0.07108124730559075,0.5775220524781292,0.03289541707358084
42,0.2631317855774587,0.7533423940601808,0.7601235894512,0.8979799757963657,0.44141297583800376,0.2675723912329126,0.7919525004138973,0.07071044347662792,0.3201835243073994,0.23294982843875023
43,0.2748104505280336,0.7469075382703806,0.7837328335767338,0.8801327688344327,0.4422002590600952,0.19396949532187865,0.78051890275777,0.06969680291289043,0.20466797684834762,0.13153015715424557
44,0.2771513370432932,0.7449176145320275,0.7932072939093138,0.8622578669103882,0.44860377178143523,0.16765598265171,0.7757866264768396,0.06813122897648892,0.0449953251091121,0.15075988159772907
45,0.2871694576663701,0.736588510810218,0.8175414673323278,0.8489320996400225,0.45349435567579405,0.1847777061951051,0.7716579689845914,0.06601526443065114,0.06923623291487464,0.18980600272933676
46,0.3066695838724094,0.7240279925991118,0.8572868529484768,0.8425349246138795,0.4617590256845628,0.2439488434834948,0.7615599914152754,0.06337196939896002,0.13219477800004723,0.22347213222419515
47,0.3213718082413604,0.7092093600568153,0.8879679473302518,0.8422185453857339,0.471893714334448,0.2137811726788469,0.7495243349645058,0.060395400839548405,0.07008542439651325,0.23354410599885392
48,0.33688747526355434,0.6972210443783294,0.9201956467138485,0.842226090157907,0.4820938699969153,0.20741168112029143,0.7390846494306537,0.05685055159962838,0.17670105244324655,0.1892979850395958
49,0.3484195566077341,0.6856751563463397,0.9430242320448619,0.8417935819997686,0.49016255382278673,0.15459538953100965,0.7277918459937798,0.05319846828455584,0.2313815933344473,0.09176834068933704
50,0.3515792010974946,0.6858792440214291,0.9544652748689484,0.8382453975166794,0.5012180192232433,0.09788333183538357,0.7204052955985251,0.04941891435145884,0.04619126544242394,0.06951024712599542
51,0.3623508192312267,0.6780958774939385,0.9772127180522739,0.8352207888270805,0.5097073937499568,0.1339898412245272,0.715975832198063,0.04556927189275375,0.1422569785727064,0.14396768435969903
52,0.3708612969119476,0.6727186340161511,0.9949525315496776,0.8333259481584,0.514640288797322,0.10115284660973933,0.710317295385807,0.04169903973713387,0.09486247476750159,0.10014369663939648
53,0.3781453801348101,0.6674759335455518,0.9900853401962926,0.8320414080510624,0.5203345225390856,0.08254618750438905,0.705307699381851,0.03789633240038068,0.055468535803664384,0.10300510555200357
54,0.3857685448886307,0.6627319537412526,0.9745287854748838,0.8304201345072545,0.5266679635463476,0.08185724318117162,0.7003036435716794,0.03416150958199215,0.06577535917531385,0.08459255894516271
55,0.39218007761611756,0.6615961103886604,0.9616396673997405,0.8278246602201323,0.5338209550666595,0.07395717024435344,0.6955924599822337,0.03051365020451214,0.1613326455410327,0.09079273218491661
56,0.39593798380573425,0.6612595736052401,0.9539846636864845,0.8261740104262096,0.5385629250066079,0.0407230772220691,0.6919740787117643,0.026998198856389797,0.019914097341386754,0.04799971579682956
57,0.4006942620238338,0.6600886456099591,0.9446466291626574,0.825511669419622,0.5423669125385336,0.058575500839949696,0.6877931609475956,0.023690839896942442,0.12712416738294788,0.06713042242794658
58,0.4031832504601048,0.6581162045315966,0.940114706463459,0.8265806285778889,0.5438728554595549,0.034499233738160655,0.6831982784191301,0.02056381163775138,0.08934948517651323,0.014982499709270292
59,0.40265654371663717,0.6569450738601594,0.9404624585249806,0.8295385029586805,0.5436516983386147,0.0300555525805586,0.6800504264987314,0.017596553552552748,0.03136887012849033,0.03140006999055827
60,0.40144204047652915,0.6541543255106125,0.9435463059731223,0.8346452776947375,0.5364637668191516,0.029457847906509863,0.67825826093456,0.014780650390833578,0.0243116285039505,0.06343561004888458
61,0.4027274869836898,0.6510065177289485,0.9440255796476564,0.8381211683357788,0.5290743926660302,0.05507827919056677,0.6768952378534175,0.012119744018944997,0.07418488487840047,0.03440414060810426
62,0.40414319984999586,0.6431912707006482,0.9417995206179371,0.8393984560718395,0.5282694697517573,0.11793566272565567,0.6761464130526234,0.00953064201834162,0.12009860135386405,0.15738101256902343
63,0.4076492905378405,0.6388195155684273,0.9371766473795701,0.8413147528606085,0.5277538342097956,0.08552412582451346,0.6749067143443295,0.007126938831833428,0.024191722477720307,0.08406854393790701
64,0.414496686991449,0.6345410883124519,0.9257672589098029,0.8426977655262113,0.528510291621559,0.10763407709675885,0.6703411274097664,0.004999758456207934,0.0343646365046981,0.09832232142720777
65,0.42031540588246674,0.6345093852509989,0.9164439369731934,0.8409589770926487,0.5310120699048916,0.13395260018092478,0.661122699793863,0.003230729884136158,0.15846795183695347,0.10079084040102285
66,0.422480235621159,0.6348401934612611,0.9139178303314175,0.8343784686017627,0.5333728906244289,0.13450746405852126,0.6506674066434247,0.0018311768850388667,0.03034933703938631,0.09942481833099226
67,0.42051347937602146,0.6365894188796685,0.9176909401989339,0.8252949014824322,0.5364979573699727,0.1486270166127481,0.6418970955969192,0.0008217888174387733,0.03472909615770229,0.12412062270735628
68,0.4173055822052924,0.6375056838893802,0.9243967591186235,0.8145547763020935,0.5332046754919829,0.15326073965114875,0.6345957179917628,0.00022515809114468575,0.02839424562451381,0.11412066489906227
69,0.4199804798650259,0.6296705684090179,0.9229981716609371,0.804490157221058,0.5315738623593027,0.15344798567431048,0.6255229528976187,0.0,0.0830907687361668,0.07004450790426038
70,0.4101162992829509,0.6301368741135156,0.94307639485409,0.7993931847160132,0.5293128616192804,0.20030710101157803,0.617988932727655,0.00023514936439167963,0.025838872715025437,0.24271852329547108
71,0.407945085276408,0.6190977156424177,0.9513060811408101,0.7932378883677501,0.5258298938661329,0.19657399960920033,0.6130561408482507,0.0008405279598070708,0.028849617502996968,0.16213138405690053
72,0.3950096279563913,0.623219444919525,0.9775814244046833,0.7833113180984427,0.5190811222831909,0.2285764010849765,0.6099426980787311,0.001979415774703732,0.04605644390171347,0.228338821600178
73,0.38765389608379824,0.6178221934260978,0.9936034318853614,0.7817734965532801,0.5132095977681419,0.19907718733930366,0.6103159118013636,0.0035952547130333593,0.1743269895671242,0.1770136297139098
74,0.3837480378897727,0.6143860484296695,0.9936934907525755,0.785014366720638,0.5055090963668621,0.14948617725158575,0.6109212197031545,0.0053469571159359625,0.18612648429161535,0.21477400319044443
75,0.37191788402938525,0.6129577110135435,0.968756992925564,0.7922603744684822,0.4985785939330502,0.2323472006703957,0.6156687877997775,0.007469496910867138,0.021785467988446147,0.26641002475699765
76,0.3720608963579777,0.6059788455730296,0.9611875897197608,0.8017337127653622,0.48902797442813395,0.23912206089096086,0.6253722718431736,0.00957412777397851,0.21562776610024226,0.13160855575206948
77,0.3672588086807053,0.6124717229527415,0.9495084704843247,0.8099959088886654,0.48848840752893136,0.20935835288445037,0.6357831297470193,0.011919204718658314,0.11726967264630703,0.07970723822384643
78,0.36853391497334353,0.6218803344640106,0.9487483201447148,0.8175090151970161,0.49016694517790416,0.19719544551436594,0.644400062557877,0.014498060119714313,0.21277533910821417,0.15718460516938013
79,0.37058491926185705,0.6380679866850736,0.9491718643222102,0.8267489262542763,0.48636979961758425,0.1833861575623294,0.6489147301504039,0.0173567952142785,0.20131310078517034,0.1964738237593581
80,0.37371921047137263,0.6579744010009065,0.9490893846665925,0.8394705442834086,0.4758536757072775,0.2874487845973121,0.6487813822422548,0.020700035370924796,0.027900321648547548,0.35428059728180433
81,0.3706441411456331,0.6807643520339967,0.9376269417156445,0.8466124954155034,0.46663014799989505,0.3140884868267904,0.6433339850230642,0.024655603348929026,0.1295259725124343,0.2835278572240282
82,0.3701280782906843,0.6957079099273603,0.9321792719211043,0.8467895481520807,0.467365464535282,0.3096928748101169,0.6338210761473284,0.029204746069902397,0.08694829850326612,0.2906818202840621
83,0.3643148379850217,0.7084371565775927,0.9183770817664771,0.844801197695248,0.47139823760988503,0.3059306774577818,0.6241673540814423,0.03433940621134414,0.19596753131557404,0.2672128171147483
84,0.3595265904224468,0.7153677567569242,0.9069935517833345,0.8405715101620166,0.48028289732016805,0.2721546993864461,0.6142553062221555,0.04000753418582058,0.025677260976862664,0.30442937984028184
85,0.3553326726870485,0.7130522229019456,0.8957286141698921,0.837604698359619,0.4844075070666026,0.23538823273550122,0.6051287501585582,0.04615235115648744,0.1761662116565694,0.2591760648188843
86,0.35695121755410647,0.6981080221189577,0.8952587030508597,0.8359846456423675,0.4898277357478251,0.26101406232067975,0.5976152248400172,0.05274654680325296,0.2934728949951706,0.16395904088583063
87,0.35974408244621825,0.6773290449814656,0.8934138337808867,0.8301403754984311,0.48627832263136467,0.36318571642906367,0.5916783234788714,0.059858958554374044,0.033766879606762,0.18225300621794646
88,0.36058818546830745,0.6647238737524511,0.8868796617120763,0.8261916784401615,0.48359424173510146,0.3852195017697797,0.5874532240565629,0.06762811314131398,0.19690149885106376,0.18942939568670317
89,0.3642649373669686,0.6556170715494428,0.8873892522329999,0.829293358179787,0.4819637409750528,0.3658443856291315,0.580005874420043,0.0760157095756916,0.017032176708133652,0.22170102081676338
90,0.37463209167879147,0.6546972277922657,0.8969796299194204,0.8325574698585307,0.48790065267980587,0.3916488762039318,0.5690234192136445,0.08517180569752272,0.061552138948958814,0.2875640383966441
91,0.38427588013793773,0.6540766805625925,0.9083484473153437,0.8271828484115534,0.5024488757375221,0.41916941196184815,0.5549870810099427,0.09501986796811264,0.0676589769645309,0.18261873877609933
92,0.3991655790040757,0.6472765021505306,0.9281408896476822,0.8120104386849593,0.5151429638104933,0.45931819390066,0.5337484291704275,0.10541679439634778,0.6831661753937666,0.17222646519235113
93,0.40566561872200074,0.6539980437483173,0.9376742003291341,0.7878235896052562,0.5294620312389512,0.33749124013891113,0.5103439276626797,0.11644675803137668,0.10288459558600878,0.22016012159809242
94,0.4169256404905849,0.6492912644437738,0.9547363431425453,0.7611338033605887,0.5350263973248659,0.34335285163510526,0.48963584068988814,0.12806678577367206,0.11518503525751404,0.15606188893449713
95,0.4267775689239846,0.6390609216511173,0.9699072497444465,0.7314826333185082,0.5393002441893914,0.3950672115141756,0.470055554674738,0.1400460624141946,0.015025516620635263,0.18040689552262043
96,0.4435999985044487,0.6288255464789549,0.996369398282392,0.698071492445343,0.5488970989883752,0.430095774953477,0.4473564009611304,0.1524390693618518,0.15481650050865112,0.1916807651243465
97,0.45827826865710786,0.6240317285206198,0.9808872981690272,0.66383694136064,0.5630866719962234,0.3925116648704043,0.42201944020470145,0.165261073509725,0.3763294285270835,0.16201274193791645
98,0.4834345091931638,0.6075023721411602,0.9420086176908269,0.6350269232426595,0.569457856296352,0.48744119104167694,0.39884823478586867,0.1782515182786574,0.6878431548131817,0.3982075254058301
99,0.49057747987276334,0.5995431914402242,0.9290829410656257,0.6053698248988816,0.5770772381579711,0.29082113930233533,0.38135421173892403,0.19124559752198572,0.11865456910559616,0.24097841228148173
100,0.4991059628950795,0.5916146874742227,0.9166325255911726,0.5795961786116389,0.586547952864146,0.2512677351690098,0.36940142037928997,0.20419954440925817,0.0669797040245742,0.13177217388503507
