Frame,Center of Mass distance,Symmetry,Grounding,Arm fold,Leg fold,Kinetic Energy,Potential energy,Bone length coherence,Torque,Center velocity
1,0.2201129624769684,0.5135118044167769,0.816372690368617,0.926622882826414,0.2970462889175385,0.1824160142598013,0.8539477125879816,0.0,0.13697840686799917,0.16474184002064732
2,0.18407522546302418,0.53495270198031,0.7477990430776082,0.930620165331954,0.25625577630801466,0.1824160142598013,0.8539477125879816,0.022884208858189647,0.13697840686799917,0.16474184002064732
3,0.16001764202767643,0.5433534442121561,0.697185128182101,0.9340295605170682,0.21669021485439058,0.12933389633589648,0.8730881981462022,0.042313764990433655,0.005876955634106564,0.10572276297708064
4,0.1354874724181596,0.5541243061717441,0.6473910461338362,0.9362091333029339,0.18924238702619608,0.1345748905473307,0.887550401239784,0.06205894154541652,0.0835873780749658,0.12177802442288656
5,0.11728418194496713,0.5638777865595599,0.6101283062962746,0.9387573761457705,0.16515771232908175,0.09660885332105096,0.8999355734001653,0.08049711132517522,0.03569772551609385,0.0929565405109794
6,0.10471572064161251,0.5739873846183573,0.5838474291200905,0.9383733051655287,0.1510931630537095,0.08271252624807582,0.9091484623130319,0.09842331735618345,0.0460413887046795,0.0909980112653138
7,0.09180977498161677,0.5801014311409669,0.5566619713120119,0.9393056049332624,0.1348931944268581,0.06439494744149599,0.9170043171747706,0.11478382359233613,0.030358738781958668,0.046000783767704605
8,0.08354670054769009,0.5848775984087937,0.5383954247442718,0.9407919558836148,0.12626519019052496,0.05092919623144675,0.9242476596967547,0.13011259334447975,0.025092349808929736,0.047785208061110876
9,0.07525740665737846,0.5877534800777683,0.5208508205345529,0.9406286887521341,0.11436400546683993,0.0438257777786208,0.9294196805851249,0.14394446159247967,0.04572446686441342,0.023470615789286196
10,0.07269942440141726,0.5911814767316776,0.5149366034773153,0.9417265990275077,0.11015500060783791,0.02244040690133266,0.9321008852907698,0.1565213706948811,0.033130806621470534,0.03581170690611294
11,0.07070692467951212,0.5920006243816789,0.5107816960458396,0.9426874232872081,0.10923602380414846,0.0077338294705113775,0.933202426531787,0.1672850265619993,0.011336112618751885,0.004583082520662766
12,0.07016878496053999,0.5945396752965272,0.5097937272194198,0.9434293606516247,0.11284492654683159,0.010012425003283183,0.9335547999390194,0.17673754457300744,0.023830486543853054,0.026143631263928213
13,0.07123492899320041,0.5947718111179117,0.5128500858273894,0.9442236476461401,0.1214457693964632,0.0022347719627191717,0.9322716537966774,0.18493977723771568,0.003790434932524439,0.006878322556572259
14,0.07215784928689956,0.5963230423446609,0.5153263526473695,0.9442046307663061,0.12724887828683037,0.011922505349489226,0.9312023247258819,0.19187755979118848,0.005993168470111267,0.015196487686269779
15,0.07524996887881276,0.5969778605348484,0.522325069430123,0.9433530004680952,0.13471634183695752,0.01664993997409809,0.9296714056397817,0.1978178563649383,0.021762881186624044,0.022169601015307717
16,0.07710536369618637,0.5975039611716647,0.5271139990580029,0.9430875009904915,0.1427170850833346,0.010802703861381501,0.9281964512815177,0.20280240736221194,0.009288061316159208,0.013082596188170576
17,0.07845349872169032,0.5996902418231627,0.5313101473900299,0.9426305682999964,0.15184451974141505,0.01295544236423809,0.9267307297527495,0.20710543677584972,0.01718020315136615,0.01872072344712066
18,0.07998891484511013,0.5997018374616994,0.5349307359011608,0.9422759451735345,0.1570889269848989,0.010573121383661606,0.9254478073852767,0.2107343168659746,0.014259060623649164,0.01882304887601555
19,0.08171765151063541,0.6001616016235968,0.538995003990764,0.9411250506398334,0.16189471556359455,0.007958172284532715,0.924613468471067,0.21405155479359336,0.010335425220061818,0.01162855647855097
20,0.08368924792551571,0.599820797792779,0.5430107800324636,0.9388782989131875,0.16467874819037095,0.009508822594993879,0.9234846279093663,0.21700763974472487,0.014976053983461588,0.018114316611871035
21,0.08497443965709682,0.6000045702076536,0.5456515572579447,0.9376516566791888,0.16797129775733813,0.00848576733540546,0.9227569964693217,0.21990195200666152,0.015281368450425355,0.011228734943303913
22,0.08579381551457899,0.5993330239476703,0.5473954581955879,0.9356719768276348,0.17337687997182244,0.009251055997336513,0.9222255864250601,0.22278217749184098,0.004522178911887865,0.01407170523428123
23,0.08893598520917811,0.5992528191156672,0.5530105654246436,0.9338768654771706,0.17566862345215034,0.013385497084244647,0.9205156512437795,0.22565653171288297,0.020253783242566645,0.01515232370989886
24,0.09043586124574964,0.5997425238157614,0.5558371533009628,0.932345154942054,0.17916451917191054,0.012927017118313658,0.918246394004266,0.2285900331063362,0.012588315283669636,0.014422504429665691
25,0.08958675559334424,0.6000908581817405,0.5537243502418949,0.931167659701163,0.1796768531582468,0.00976580834682387,0.9181378320877658,0.2314219420222158,0.020336339195913385,0.008014443727520497
26,0.08902761494929504,0.5996805950996025,0.5530527127186139,0.9301568395325257,0.18182786420550243,0.0027924629824133476,0.9190776512786933,0.23420817760055354,0.008414470604925454,0.0
27,0.0904455983083877,0.5978059674161983,0.5568767865522513,0.9296794279151934,0.1956764791475071,0.0077027852475273105,0.9188706351152945,0.2368316507050407,0.012646079419778175,0.0012437777326762755
28,0.09258341011716532,0.5972473055517469,0.5609764039851838,0.929723083938993,0.20410148099850112,0.007020994117144866,0.9174802620569085,0.23936517142275718,0.00399098492833063,0.011286519598194218
29,0.09591574112285672,0.5973581870725022,0.5678183147064948,0.9288243154518893,0.21114853494761554,0.014001797884921355,0.91475849739591,0.2418241088914998,0.029198309887368747,0.015665144810880726
30,0.09765622350919702,0.5965599398429382,0.5711030844559861,0.9289130826161299,0.2124424887231571,0.003944532412679486,0.9124080213978718,0.2441161921708658,0.010386647485662719,0.006149995749133377
31,0.0999750161255886,0.5959829439374639,0.5757442719566123,0.928873641947169,0.21613004937211316,0.006129709889307144,0.9106898450454276,0.2462531401353888,0.01904429289643204,0.006549185511048979
32,0.1005473813023968,0.5962642619107348,0.5771296942971464,0.9289149078844766,0.21769902077903153,0.0,0.9091748168865044,0.24821130201227118,0.009102626080351974,0.0012396080335738617
33,0.0995366050072391,0.597391395966377,0.575622362041793,0.9291472865747021,0.21887593747055278,0.0015668541713534886,0.9089082428599906,0.2500800914376559,0.008266238150538088,0.002551559513818136
34,0.09956466189214677,0.5982291996938708,0.5764145498897665,0.9300579071274491,0.22004041903739813,0.004542169014109144,0.9085408979279015,0.2518728033500532,0.005328672797632384,0.0008585664896243588
35,0.10088773586804971,0.5994381084402013,0.579470002104317,0.930610537790532,0.21932830656779037,0.012605245243846229,0.9068056557586576,0.2537209359079316,0.008241899301896708,0.008916188530941716
36,0.10195720105343788,0.6007839441733083,0.5826763688230879,0.9307136885996913,0.22277006303781458,0.014920199363472905,0.9040868888092956,0.2556908554702465,0.008526338556553595,0.010053498139246449
37,0.1034103708436506,0.6039484220246717,0.5864120692983987,0.9298474902626829,0.22206695562986167,0.03253820912584875,0.9006003542903289,0.2578227003390975,0.005991178522358529,0.02948856017052336
38,0.10143945136434174,0.6068787167965947,0.5837631345321498,0.9291433355240462,0.2160527047315279,0.03511691578353402,0.8976054312250425,0.260173186004055,0.006858050961754252,0.004761589996566221
39,0.09840284241165949,0.6112900819482767,0.5791473260472484,0.9286807412017439,0.21152773536763017,0.05269423975692373,0.8943604001792936,0.262685099068713,0.02453168450767636,0.016958167792851826
40,0.09004014031000664,0.6202332862183534,0.564075363083835,0.9178760424426665,0.2032872971783941,0.08373023572308727,0.8928504723894611,0.2653831524171892,0.004009847426069803,0.037707917820921526
41,0.08105275400525866,0.6332750573291744,0.5462719835530664,0.8786074042223209,0.18659373439156007,0.1073590621459532,0.8934834421272322,0.2683763772937422,0.021528833002791056,0.04095764913324155
42,0.0708003524016769,0.6453201631181696,0.5277434892873135,0.8119745214889905,0.1707866920468358,0.11576396884123856,0.8959035076703725,0.27145238826682266,0.023991738827129374,0.03997790949788013
43,0.07238821709876499,0.6557579303260905,0.5245738315020004,0.7150681951360904,0.1343238284659987,0.15165981331978898,0.8906083311484229,0.2751456056351078,0.0038108887678587984,0.10136283254710837
44,0.05328741905230446,0.669006074276405,0.4897039702898971,0.6025602673809944,0.10178710256175828,0.14781371492651377,0.888293108246658,0.27859345099347865,0.03693524544928436,0.11836202336404099
45,0.03442210746723395,0.6821499407761683,0.45787777817790015,0.479986453260734,0.0814727748024629,0.1357411004603064,0.902543014069319,0.2814693977011639,0.04215443958414102,0.1098551912573673
46,0.01923640950390493,0.6913323591415866,0.43351664226259495,0.3529312442081935,0.06966493106572275,0.12722956379593453,0.9207668159702835,0.2840521394683676,0.03797658833776874,0.10851055524659041
47,0.009141010453984796,0.7019359446387705,0.416422515581986,0.2131346069202969,0.05998072137241017,0.12360097948593766,0.9370524370341867,0.28575317368035125,0.039415789386377534,0.07578941287160366
48,0.0,0.707020218834166,0.40428772049198003,0.0946373913326001,0.05637951975763184,0.11490502692854808,0.9484891586292362,0.28757474682360235,0.05108709232039344,0.10336057850393718
49,0.002207130876948468,0.7028957205136096,0.4105205348359022,0.0604575224457832,0.038459786816077,0.05045792416183292,0.9525862027096063,0.28870924869050313,0.07336250559970521,0.05385904743405667
50,0.0052698585128260755,0.6965581551866731,0.4169160467984872,0.10198281478028111,0.0,0.10644818641666677,0.9482955048156446,0.2897550190150639,0.04698619333892944,0.04636199893408299
51,0.014830530381280294,0.6847524409707577,0.43965156611729406,0.22307203795262084,0.005474394648723724,0.1788177177704189,0.9358941729598084,0.29002088973769957,0.008629595589561072,0.07988283507561995
52,0.02557214886533872,0.6683520243092544,0.4658286612470329,0.3827801830636158,0.035433356236373635,0.20456627383757203,0.9166200044717003,0.2895885958123402,0.03851071416352792,0.10279318743444954
53,0.0358376916224794,0.6539560228233177,0.48836386762029826,0.5552032627831957,0.055705494360254064,0.18929349283384325,0.8946881454643882,0.288856084410661,0.09316316212047646,0.1157691675611992
54,0.04627456871200558,0.6299386915362633,0.5072413233522653,0.7429703452022967,0.07112875657650589,0.18024624124560668,0.8747051153340054,0.2881729650321687,0.004512899931137032,0.015535883016792804
55,0.05962498321452972,0.600650742369894,0.5261912905577307,0.8977381311025119,0.06793083629592393,0.1758804547510526,0.8596897144729261,0.28730037444344936,0.05923898325472152,0.11262181070279687
56,0.06515899514766214,0.5816608867989874,0.5338253891270153,0.9621553262681108,0.06862244643537084,0.11749840063455451,0.853028020111262,0.28628129713513745,0.1029214948331838,0.1610634329256594
57,0.06593703645502624,0.5696303264921151,0.5365889826607347,0.9453277590540315,0.0695748492807624,0.14867214952912952,0.8567539426823466,0.28539933065720513,0.09876079856320726,0.22223673622801665
58,0.06785731413380228,0.5664333559799914,0.5391898785757913,0.8917619286621536,0.066631225611917,0.10715292492766942,0.8631411302726804,0.2850471223664425,0.055998290009035785,0.09183206550999061
59,0.05812006154368646,0.5693355266957282,0.5218995177200265,0.832787306712159,0.06030438550164149,0.08968263748489744,0.870624182858632,0.284967084743628,0.10573821420581854,0.07065518200459145
60,0.05756995040197859,0.571398672714317,0.5197282522854505,0.7826896349016581,0.06013950948509565,0.053600976518989,0.8754320476779477,0.28506285278911303,0.051930654213145806,0.049144295437213166
61,0.05672513915901298,0.5748351525565552,0.5177491422556462,0.7589591650070237,0.05675408739553651,0.02965177090546658,0.8739774441966023,0.2851758862959256,0.0037720866471241806,0.04776575431755842
62,0.057826283834316344,0.5756737079712072,0.5190829001713116,0.7531714217812113,0.04912599896586015,0.05179515839778152,0.8716305039761388,0.28558491155924404,0.1866870063595283,0.0526790179090437
63,0.07525489137235894,0.5645714707389939,0.5483585012029922,0.7579225564986998,0.05337047669837399,0.13137908404324536,0.8693571655698321,0.2857184151809544,0.10597140813034468,0.21017654375343992
64,0.09817741963841424,0.543046510379871,0.5890274675081549,0.7599478089876709,0.061043357790502024,0.19710719115783626,0.8694228290555666,0.28591894233441206,0.01340237764827544,0.31522074666238425
65,0.12030803095084769,0.509689715439857,0.6289899001434135,0.7556761625637426,0.0671960951845915,0.1937436066209126,0.8709979911010524,0.28541313715682487,0.016477140683292407,0.1468241898626098
66,0.14223598871337842,0.46801331032779586,0.6649655613263735,0.7563713132212248,0.07324270715276444,0.24404968253500647,0.8732897004047806,0.28449585433805974,0.15537199558687192,0.19578515914984668
67,0.13763720039105126,0.44039764659870306,0.6642436189683524,0.7480829835928832,0.10103971145860512,0.18970018045143502,0.8791022082289001,0.2832074733531353,0.04566388803172095,0.06314394333552865
68,0.15036183187649615,0.4316402773547448,0.6883672798079488,0.7217192708094613,0.12183404580180061,0.12425372463042397,0.8777571908459058,0.28220087357679696,0.014924311678122408,0.1418852232134996
69,0.1571508182307018,0.4500480354782169,0.7034632621969584,0.7024408611791879,0.12849324803605167,0.12267850145485244,0.8693130928929333,0.28185031758932416,0.005315635504694132,0.10954077726852565
70,0.155621710973235,0.4916443484257107,0.7005247347334241,0.6992574666649928,0.11041568020844132,0.1827013221272358,0.8641725164511799,0.2821796106344445,0.004201787653176342,0.0782236936057813
71,0.16401948915736766,0.5421624291777661,0.712239416473848,0.688284884415735,0.11120817957475568,0.2416476354746632,0.8550152335940768,0.28314850706078004,0.009178798726937299,0.11265841911816458
72,0.16787303402386541,0.5984363924472319,0.7234383603590125,0.6601611286511759,0.1318822692546159,0.2625719285665118,0.8373548099407622,0.2847220222547798,0.011133961711230315,0.051757778626606896
73,0.17963498501549743,0.6416922985851731,0.745519916826203,0.630330408024884,0.15158018181178048,0.20714119851063328,0.8128060080484854,0.2865660830366013,0.08254258200555203,0.10266929334702651
74,0.19532955654280432,0.6496080064452278,0.7766264325637247,0.6252769564732027,0.18866366607362553,0.10250604293899879,0.7841038203009778,0.28846566779013705,0.08028517725418932,0.1321224318666938
75,0.19925131847659627,0.6156019384122404,0.7881648207842051,0.6464969381203169,0.204814390259563,0.1362120279796535,0.767911150879177,0.2900232891947091,0.15633036284104987,0.09241722173572631
76,0.2039002057210608,0.5421801970356214,0.7962009048346976,0.6921324241201662,0.20077321539984316,0.2794330104233198,0.7716593680510906,0.29090396583963135,0.04907223321320043,0.10982616190212596
77,0.2138636763248038,0.4599422687315356,0.8111382683754285,0.7252837611651534,0.18975089195365502,0.3239355219365166,0.7824266011114385,0.29132406291976526,0.00869651184944572,0.17605581173833654
78,0.237510970582577,0.40098738927468874,0.8475195406132727,0.7342769377957586,0.21438247105286987,0.2664654477756145,0.7879382925889313,0.2912034728495713,0.2422494965018404,0.18616434181839184
79,0.2561630218574406,0.3859463312645304,0.8814277184081002,0.7460967085741205,0.2700563665475028,0.13621336659749647,0.7854729866341223,0.2909993106268807,0.0029766054113794186,0.18474128797363482
80,0.2512754743239045,0.4260606799607021,0.8763732155085313,0.7657065021376119,0.28934812240274455,0.18823217120135755,0.7796939624499073,0.2909714061876365,0.16704374445802095,0.07911567895813204
81,0.24204732531191028,0.49770880347808416,0.8624908939072059,0.7526915577535932,0.26406979417842014,0.30481480544262485,0.7725850309587783,0.2914863367931959,0.11778108476751907,0.1425018378578732
82,0.23170837890905058,0.5836091429252248,0.8500375015305136,0.702231311426863,0.2562113657752387,0.36305499635501637,0.7599256562188516,0.29242336299400823,0.05471773489044743,0.25117310284141336
83,0.2216022465005766,0.669203181505569,0.8404727849793268,0.6424688476812337,0.25791213698346155,0.37062537382297045,0.7379485140218575,0.29368889940970416,0.2293912428841708,0.36370975012710277
84,0.21876962784440865,0.7135078413140669,0.8402239799858849,0.6247900699560156,0.24940679734844343,0.24088034758977753,0.7109477838985272,0.29497672373644696,0.39244600897821996,0.3169474112224963
85,0.22627394702910553,0.6920005646044589,0.8562598923501219,0.6514548847668736,0.2639290028211777,0.1266773743991093,0.6865495416066402,0.29611019678335504,0.2899360290340724,0.1743332278327802
86,0.23988330002204414,0.6164964107425787,0.8789351365065824,0.6952074869476441,0.2782931105868368,0.28308412119935367,0.6760181648360758,0.2969534811397817,0.3802968553322758,0.19852032493740934
87,0.26421117059643406,0.5024506339967991,0.9142532092642498,0.7328959532853244,0.29369102939476716,0.4618237196319416,0.6840845430502626,0.297293977952084,0.17722341742773035,0.3971593847262234
88,0.30492449077188943,0.3811990221134361,0.9755648324843638,0.7484477307855547,0.3188989346530641,0.5501923696392765,0.7023995706535344,0.2970727835458088,0.12162310193157021,0.5526384006484627
89,0.35601352779421297,0.29235185103677347,0.9487673110595013,0.7510895539297361,0.37261996757073973,0.4710820646268453,0.7157103929679959,0.2961969675783763,0.624721370151703,0.48737482850300334
90,0.3753476132706205,0.2700177191897574,0.9163904849456235,0.7512108796626237,0.441672629186517,0.1984320159239523,0.7214807991365918,0.2954072252310976,0.06196419398923954,0.27296759587181624
91,0.3487724045126772,0.32270185994217987,0.9515821158213781,0.7575855236627886,0.46213314732343125,0.23019249822579524,0.7300007879255348,0.2948597536447385,0.41004229576442613,0.17062361106578497
92,0.31059995940639534,0.4250890453430091,0.9912735368244368,0.7449769364318377,0.41155443454165497,0.44670897379917857,0.7385557286453718,0.2946296229995394,0.3284004723757057,0.34875586165329375
93,0.2590104084215244,0.5619035271777599,0.9112276680325176,0.7129316245135069,0.33056374699125485,0.6141144654216026,0.7402085473165727,0.2947754519518764,0.026431658008328064,0.5488744084075279
94,0.20600013139764442,0.6993376319575427,0.827093511725399,0.6844747442942222,0.2337453345036933,0.6373635687197734,0.7366817648387207,0.2954371622878917,0.4809058609206056,0.5897168306871413
95,0.17338155159641203,0.7856117696176782,0.7716462539244922,0.6854856424234551,0.16586634168330103,0.4246423011064908,0.7243364659062339,0.29642224314673815,0.6441015955576649,0.4716435868916366
96,0.15875022964856197,0.7887480769716755,0.746356971148404,0.7125727679253824,0.1722989028779248,0.16559714912477855,0.7078627342895839,0.29758303854882445,0.33668798782107706,0.2571809652602608
97,0.17359684420188012,0.7109596904937054,0.7642518964144622,0.7436136342969623,0.20311844290635042,0.32815731022360345,0.7012276620004737,0.29901705171777404,0.6437201424660803,0.29302265547985634
98,0.21907282428295435,0.5714165032495557,0.8292978605197584,0.7609421596510226,0.24424914482868618,0.610491762328112,0.7013120138827943,0.30086471699033995,0.3070715644849183,0.5898085916238621
99,0.2936744076190524,0.4026804004715171,0.9469232536490872,0.7621765952222036,0.3160597228076931,0.7665817302089888,0.6948547595930821,0.30277453090334255,0.20061633524402062,0.7400015321510933
100,0.378625263145031,0.2677978178097972,0.9216534583315019,0.7560815961592388,0.4131848139403961,0.6767756905000983,0.6759069622806093,0.30506632444491566,0.7687145197619706,0.6256038662071938
